#"-ESI Scan (rt: 0.049-1.024 min, 81 scans) Frag=175.0V 10B.d "
#Point,X(Thompsons),Y(Counts)
0,50.0036,29.5241641998291
1,50.0091,5.79848909378052
2,50.0171,3.49430871009827
3,50.0198,7.46669149398804
4,50.0262,6.73097038269043
5,50.0323,6.70720291137695
6,50.0370,10.7101745605469
7,50.0423,14.2182855606079
8,50.0453,5.18510007858276
9,50.0489,23.5699081420898
10,50.0556,8.3317928314209
11,50.0595,13.3511600494385
12,50.0655,4.2081127166748
13,50.0685,3.50273036956787
14,50.0739,11.6713647842407
15,50.0813,6.60469722747803
16,50.0848,14.6132316589355
17,50.0908,24.363208770752
18,50.0983,30.8852596282959
19,50.1038,20.4769287109375
20,50.1110,14.5121059417725
21,50.1156,13.3509540557861
22,50.1189,7.73324489593506
23,50.1300,15.8349924087524
24,50.1367,10.5540752410889
25,50.1410,25.6893196105957
26,50.1468,17.375560760498
27,50.1522,2.6503586769104
28,50.1582,8.81336879730225
29,50.1613,9.28042984008789
30,50.1652,5.0048246383667
31,50.1735,13.3389053344727
32,50.1795,10.1591415405273
33,50.1835,18.420166015625
34,50.1884,10.1889991760254
35,50.1931,21.0899982452393
36,50.1966,4.88852405548096
37,50.1997,12.1406841278076
38,50.2031,2.85127639770508
39,50.2090,15.8023376464844
40,50.2119,3.90279126167297
41,50.2146,2.73533320426941
42,50.2175,21.1416988372803
43,50.2263,27.3674831390381
44,50.2319,3.75247693061829
45,50.2380,6.78692626953125
46,50.2413,22.2004776000977
47,50.2448,3.30872702598572
48,50.2484,3.17476439476013
49,50.2538,6.92195510864258
50,50.2587,12.9504842758179
51,50.2622,9.29385375976563
52,50.2662,17.1587753295898
53,50.2704,9.41391754150391
54,50.2758,14.7558679580688
55,50.2794,9.21772956848145
56,50.2861,23.5362434387207
57,50.2912,12.6602544784546
58,50.2966,5.36723136901855
59,50.3024,8.90892219543457
60,50.3106,6.74190998077393
61,50.3169,5.53691720962524
62,50.3223,15.19517993927
63,50.3265,7.7648458480835
64,50.3293,10.7146406173706
65,50.3344,4.1912088394165
66,50.3390,22.5954265594482
67,50.3432,24.1038780212402
68,50.3470,3.97805666923523
69,50.3502,2.71885323524475
70,50.3535,21.6160907745361
71,50.3571,8.90597534179688
72,50.3610,3.43249559402466
73,50.3649,5.05503702163696
74,50.3689,10.7234344482422
75,50.3724,12.9117584228516
76,50.3811,7.623459815979
77,50.3848,17.4637641906738
78,50.3909,10.1874771118164
79,50.3954,16.8621616363525
80,50.3990,3.58185458183289
81,50.4053,7.56584501266479
82,50.4095,6.61326694488525
83,50.4140,10.3996315002441
84,50.4219,14.1898946762085
85,50.4273,9.09831142425537
86,50.4313,4.56251049041748
87,50.4370,11.3933801651001
88,50.4427,27.739013671875
89,50.4498,2.97184443473816
90,50.4553,16.2947196960449
91,50.4592,7.59122180938721
92,50.4630,15.0968933105469
93,50.4773,6.88933658599854
94,50.4812,5.08585405349731
95,50.4854,7.01326131820679
96,50.4878,11.2885761260986
97,50.4925,2.69549775123596
98,50.5008,13.4690256118774
99,50.5047,12.3499116897583
100,50.5084,16.2257900238037
101,50.5130,6.82012271881104
102,50.5178,6.91218233108521
103,50.5218,2.61745762825012
104,50.5265,4.53911018371582
105,50.5325,12.820276260376
106,50.5369,2.78691029548645
107,50.5442,11.259373664856
108,50.5514,2.7906277179718
109,50.5590,13.6869878768921
110,50.5637,7.12257194519043
111,50.5658,4.57598066329956
112,50.5759,3.88235354423523
113,50.5829,15.1205215454102
114,50.5865,6.78584289550781
115,50.5930,2.74049377441406
116,50.5975,2.95909857749939
117,50.6020,13.472601890564
118,50.6053,6.08953952789307
119,50.6086,5.0556526184082
120,50.6169,2.96100258827209
121,50.6207,12.050684928894
122,50.6264,7.90489959716797
123,50.6303,4.52412033081055
124,50.6339,6.07528162002563
125,50.6397,13.8595314025879
126,50.6452,9.42495250701904
127,50.6555,9.09574508666992
128,50.6640,12.0456867218018
129,50.6673,11.648904800415
130,50.6725,15.041934967041
131,50.6763,10.2611865997314
132,50.6792,5.99897241592407
133,50.6824,16.8022975921631
134,50.6865,5.46597814559937
135,50.6944,13.4404783248901
136,50.6982,7.48265266418457
137,50.7030,5.09511280059814
138,50.7061,5.21523523330688
139,50.7116,5.24679613113403
140,50.7160,6.30204200744629
141,50.7204,11.6355533599854
142,50.7250,13.5001840591431
143,50.7298,8.52679538726807
144,50.7339,8.3637170791626
145,50.7362,6.64729070663452
146,50.7403,21.9386463165283
147,50.7454,9.06509780883789
148,50.7493,26.7016429901123
149,50.7576,17.7411098480225
150,50.7623,7.4724235534668
151,50.7677,6.52608013153076
152,50.7740,13.15891456604
153,50.7781,11.6516599655151
154,50.7855,13.2328481674194
155,50.7878,7.69794225692749
156,50.7985,11.4081296920776
157,50.8021,7.64285182952881
158,50.8081,9.48559951782227
159,50.8206,5.65863275527954
160,50.8277,2.61976313591003
161,50.8334,3.3588445186615
162,50.8372,13.2841691970825
163,50.8436,5.6445517539978
164,50.8474,4.51173400878906
165,50.8518,14.7056550979614
166,50.8561,33.0987243652344
167,50.8651,10.4908056259155
168,50.8683,2.94457054138184
169,50.8776,12.4790096282959
170,50.8860,6.49813652038574
171,50.8911,7.46132612228394
172,50.8971,10.0698289871216
173,50.9001,17.3709239959717
174,50.9048,9.60189056396484
175,50.9101,3.73243474960327
176,50.9134,5.63598537445068
177,50.9169,9.74424171447754
178,50.9227,13.8497362136841
179,50.9277,6.80279111862183
180,50.9362,12.313775062561
181,50.9409,3.78534984588623
182,50.9438,4.39001560211182
183,50.9469,2.92182612419128
184,50.9522,3.08693432807922
185,50.9571,11.0681257247925
186,50.9599,3.21997737884521
187,50.9683,4.75222730636597
188,50.9766,14.5574226379395
189,50.9797,13.6750040054321
190,50.9841,9.92420291900635
191,50.9876,5.38340854644775
192,50.9936,3.48167443275452
193,50.9983,9.00801849365234
194,51.0018,17.9900283813477
195,51.0092,10.4915142059326
196,51.0157,13.2805194854736
197,51.0197,2.78521776199341
198,51.0237,30.6233940124512
199,51.0286,14.356541633606
200,51.0328,6.1212682723999
201,51.0365,11.8393459320068
202,51.0398,6.68220567703247
203,51.0437,13.155969619751
204,51.0512,23.2668972015381
205,51.0557,25.4476871490479
206,51.0590,2.89086437225342
207,51.0624,14.5756893157959
208,51.0682,18.27565574646
209,51.0721,10.2381057739258
210,51.0772,4.6426362991333
211,51.0878,18.1570358276367
212,51.0946,7.85749101638794
213,51.0999,12.934365272522
214,51.1058,8.23319530487061
215,51.1110,2.82442665100098
216,51.1165,6.98127555847168
217,51.1214,3.78889417648315
218,51.1268,3.89771604537964
219,51.1303,6.8085765838623
220,51.1342,15.5216970443726
221,51.1370,2.97418618202209
222,51.1419,6.59077453613281
223,51.1460,2.6549072265625
224,51.1487,14.697078704834
225,51.1533,7.57392644882202
226,51.1569,3.8795108795166
227,51.1623,4.27120018005371
228,51.1674,3.84966135025024
229,51.1721,6.36187648773193
230,51.1755,11.3633880615234
231,51.1825,8.14014148712158
232,51.1864,6.72773361206055
233,51.1906,13.4128084182739
234,51.1966,9.68903064727783
235,51.2015,14.4877662658691
236,51.2094,7.72577667236328
237,51.2124,9.13583087921143
238,51.2205,3.49276876449585
239,51.2247,8.26999664306641
240,51.2276,3.29804825782776
241,51.2358,11.2589712142944
242,51.2483,25.765625
243,51.2518,2.70370364189148
244,51.2579,7.91053771972656
245,51.2642,7.42475557327271
246,51.2678,4.78802442550659
247,51.2713,3.26178550720215
248,51.2741,6.95790243148804
249,51.2784,2.71340394020081
250,51.2829,4.75693130493164
251,51.2866,16.0586376190186
252,51.2948,15.1375913619995
253,51.2992,28.684253692627
254,51.3054,6.2109842300415
255,51.3123,14.1190500259399
256,51.3168,5.48456811904907
257,51.3196,3.82066297531128
258,51.3244,8.07936573028564
259,51.3284,2.83499526977539
260,51.3325,5.32502222061157
261,51.3375,9.46685886383057
262,51.3401,22.355037689209
263,51.3469,6.89844655990601
264,51.3547,8.40913105010986
265,51.3598,3.89883923530579
266,51.3688,10.6505937576294
267,51.3741,16.1293258666992
268,51.3779,18.2308864593506
269,51.3826,3.8030731678009
270,51.3863,10.0755052566528
271,51.3944,2.65961194038391
272,51.3980,10.1741189956665
273,51.4011,11.120810508728
274,51.4038,4.22907495498657
275,51.4075,13.2913694381714
276,51.4133,2.73432874679565
277,51.4181,7.91613340377808
278,51.4213,3.53305625915527
279,51.4269,8.07998180389404
280,51.4335,10.3587608337402
281,51.4402,14.3183212280273
282,51.4433,4.84782314300537
283,51.4495,13.8912200927734
284,51.4582,19.8549575805664
285,51.4642,11.0561504364014
286,51.4676,3.61730766296387
287,51.4713,2.64268183708191
288,51.4741,4.59316110610962
289,51.4832,8.39135932922363
290,51.4890,22.9192028045654
291,51.4976,23.1851863861084
292,51.5020,6.10794878005981
293,51.5059,3.3603515625
294,51.5092,8.0881872177124
295,51.5141,9.20046234130859
296,51.5175,3.7697229385376
297,51.5225,17.1440963745117
298,51.5272,12.3152008056641
299,51.5313,13.1059989929199
300,51.5373,5.26374006271362
301,51.5412,13.9125814437866
302,51.5474,5.63241910934448
303,51.5522,6.45017337799072
304,51.5570,12.0333518981934
305,51.5611,4.93330669403076
306,51.5642,6.65628671646118
307,51.5683,11.5420913696289
308,51.5737,22.5262622833252
309,51.5850,3.29407954216003
310,51.5908,3.8829288482666
311,51.5993,7.92804765701294
312,51.6059,27.3478012084961
313,51.6102,8.79296016693115
314,51.6147,8.88599109649658
315,51.6211,3.65360713005066
316,51.6291,12.695161819458
317,51.6331,10.0506677627563
318,51.6371,12.544527053833
319,51.6438,6.13074350357056
320,51.6507,4.54023456573486
321,51.6545,17.3610076904297
322,51.6607,2.74624943733215
323,51.6634,9.29407691955566
324,51.6718,3.04838418960571
325,51.6784,3.64990568161011
326,51.6888,2.71160674095154
327,51.6924,5.22668981552124
328,51.7011,14.7271490097046
329,51.7059,5.05745792388916
330,51.7109,18.9980049133301
331,51.7155,4.85189151763916
332,51.7205,11.4623603820801
333,51.7249,6.26631307601929
334,51.7294,6.17798328399658
335,51.7335,15.8016719818115
336,51.7431,3.13584542274475
337,51.7526,13.1764469146729
338,51.7590,4.67749643325806
339,51.7618,16.7354125976563
340,51.7683,18.6910991668701
341,51.7796,3.32834649085999
342,51.7825,12.2731056213379
343,51.7874,4.91320085525513
344,51.7919,9.27329540252686
345,51.7961,13.1726560592651
346,51.8013,11.4038381576538
347,51.8129,3.46959948539734
348,51.8208,13.0334062576294
349,51.8253,2.91830539703369
350,51.8298,8.74594211578369
351,51.8372,2.84914588928223
352,51.8410,10.0067300796509
353,51.8449,17.8481731414795
354,51.8517,6.08852434158325
355,51.8592,10.5345153808594
356,51.8665,7.58152198791504
357,51.8743,5.82716608047485
358,51.8781,2.94075536727905
359,51.8815,8.61752033233643
360,51.8859,3.24765539169312
361,51.8888,13.5960063934326
362,51.8938,10.7670087814331
363,51.8977,3.26804876327515
364,51.9085,8.09529972076416
365,51.9131,20.0656280517578
366,51.9162,12.9321155548096
367,51.9208,24.3620719909668
368,51.9295,6.62973499298096
369,51.9344,10.7502698898315
370,51.9378,7.93357133865356
371,51.9478,8.40257453918457
372,51.9536,4.96493244171143
373,51.9588,11.9547109603882
374,51.9638,9.6587438583374
375,51.9670,8.44730186462402
376,51.9715,15.9562854766846
377,51.9766,12.010479927063
378,51.9809,6.58563137054443
379,51.9857,28.2729034423828
380,51.9918,3.72046494483948
381,51.9960,6.58835315704346
382,52.0061,3.39954209327698
383,52.0093,2.57581520080566
384,52.0145,14.7296485900879
385,52.0170,6.29839324951172
386,52.0233,16.057445526123
387,52.0258,12.7110548019409
388,52.0290,7.48939895629883
389,52.0324,5.39003467559814
390,52.0364,16.6836242675781
391,52.0407,17.7113285064697
392,52.0434,2.8460898399353
393,52.0491,8.11641311645508
394,52.0522,10.3237981796265
395,52.0622,7.17365312576294
396,52.0671,21.3271636962891
397,52.0709,3.03102231025696
398,52.0747,13.5014228820801
399,52.0784,17.8835849761963
400,52.0810,6.468101978302
401,52.0842,6.62092113494873
402,52.0871,2.97006177902222
403,52.0925,14.6625890731812
404,52.0987,3.10907554626465
405,52.1103,19.5783729553223
406,52.1162,9.37221717834473
407,52.1187,4.20401906967163
408,52.1247,9.88003158569336
409,52.1301,19.5063571929932
410,52.1365,2.78321051597595
411,52.1447,6.48500967025757
412,52.1487,7.97578048706055
413,52.1573,9.75
414,52.1645,16.5151195526123
415,52.1735,2.85542511940002
416,52.1777,6.12433433532715
417,52.1833,9.61319732666016
418,52.1888,4.99452877044678
419,52.1961,13.8827342987061
420,52.2007,4.94388961791992
421,52.2080,5.40601968765259
422,52.2162,17.5204086303711
423,52.2226,8.00722312927246
424,52.2271,6.52572298049927
425,52.2314,8.36592578887939
426,52.2355,8.12628650665283
427,52.2410,11.2523326873779
428,52.2455,3.25678992271423
429,52.2491,6.75886154174805
430,52.2550,6.50985908508301
431,52.2694,5.20858526229858
432,52.2744,3.55803155899048
433,52.2829,7.39124059677124
434,52.2897,11.5260219573975
435,52.2930,4.81251001358032
436,52.3019,14.085578918457
437,52.3043,5.41292333602905
438,52.3091,9.73091983795166
439,52.3140,11.2612771987915
440,52.3197,12.4732789993286
441,52.3323,7.19956827163696
442,52.3363,12.3060359954834
443,52.3459,8.73183345794678
444,52.3542,5.69188165664673
445,52.3576,12.0843372344971
446,52.3664,18.8294219970703
447,52.3708,19.3165454864502
448,52.3821,9.96688270568848
449,52.3891,11.6841335296631
450,52.3916,3.78861236572266
451,52.3946,11.242205619812
452,52.4006,4.92598867416382
453,52.4044,13.7296686172485
454,52.4074,4.49632740020752
455,52.4130,8.54452419281006
456,52.4167,12.2932834625244
457,52.4227,6.10571241378784
458,52.4256,9.00902557373047
459,52.4370,7.16049814224243
460,52.4413,3.28244972229004
461,52.4505,10.6104345321655
462,52.4589,3.38123726844788
463,52.4640,14.6260461807251
464,52.4673,9.59066677093506
465,52.4731,17.414098739624
466,52.4775,16.3679866790771
467,52.4811,9.0044002532959
468,52.4847,3.83266496658325
469,52.4876,7.71198511123657
470,52.4900,2.97813153266907
471,52.5008,18.9773902893066
472,52.5040,3.38274097442627
473,52.5179,13.357029914856
474,52.5231,4.05143547058105
475,52.5338,21.167875289917
476,52.5406,13.1655693054199
477,52.5438,9.24513816833496
478,52.5499,11.2938594818115
479,52.5535,11.0270433425903
480,52.5563,4.77823305130005
481,52.5600,2.8247127532959
482,52.5631,12.8810625076294
483,52.5681,11.1216878890991
484,52.5718,2.7431001663208
485,52.5753,25.8376312255859
486,52.5874,3.89874315261841
487,52.5938,6.27317523956299
488,52.5991,2.64204382896423
489,52.6066,10.4390668869019
490,52.6115,10.4150838851929
491,52.6141,5.02832269668579
492,52.6193,9.46027851104736
493,52.6256,8.79582500457764
494,52.6299,4.39162874221802
495,52.6335,20.71435546875
496,52.6405,15.6305446624756
497,52.6456,30.2114887237549
498,52.6499,7.57602882385254
499,52.6556,10.5576267242432
500,52.6598,4.61630535125732
501,52.6648,3.86861133575439
502,52.6715,13.2829895019531
503,52.6826,9.94748592376709
504,52.6906,10.582857131958
505,52.6965,8.32908630371094
506,52.7044,11.5297613143921
507,52.7108,18.7938690185547
508,52.7152,20.074146270752
509,52.7210,9.0927209854126
510,52.7272,13.1997699737549
511,52.7374,10.3534479141235
512,52.7417,10.7921495437622
513,52.7475,8.65595054626465
514,52.7503,2.97696828842163
515,52.7653,10.1826095581055
516,52.7680,5.0138578414917
517,52.7725,5.96383953094482
518,52.7769,2.92391967773438
519,52.7829,7.69634628295898
520,52.7881,14.6362562179565
521,52.7920,12.3313903808594
522,52.7986,6.59464359283447
523,52.8034,9.65272045135498
524,52.8077,6.09535360336304
525,52.8153,3.43405985832214
526,52.8185,4.60872173309326
527,52.8230,2.83818340301514
528,52.8275,3.09745526313782
529,52.8303,3.29569435119629
530,52.8372,27.4902248382568
531,52.8441,4.97135972976685
532,52.8565,12.2658634185791
533,52.8663,13.443657875061
534,52.8698,9.87760925292969
535,52.8750,14.2675361633301
536,52.8873,11.1306285858154
537,52.8960,14.6748018264771
538,52.9070,7.45947265625
539,52.9204,15.888256072998
540,52.9233,7.717613697052
541,52.9299,10.4181547164917
542,52.9345,22.4635829925537
543,52.9392,10.31529712677
544,52.9495,2.81766390800476
545,52.9558,5.87370014190674
546,52.9616,9.08339214324951
547,52.9665,16.3858509063721
548,52.9725,4.53086423873901
549,52.9763,6.57500600814819
550,52.9851,13.5472173690796
551,52.9915,10.2703819274902
552,52.9986,8.04427337646484
553,53.0022,6.46537733078003
554,53.0064,10.8585367202759
555,53.0096,2.71733546257019
556,53.0132,10.5440587997437
557,53.0181,10.1123132705688
558,53.0268,7.95819711685181
559,53.0330,7.56116771697998
560,53.0402,25.0024528503418
561,53.0448,12.5552015304565
562,53.0521,8.43148708343506
563,53.0657,12.2588024139404
564,53.0698,4.79149532318115
565,53.0764,5.22298860549927
566,53.0810,12.6650991439819
567,53.0845,16.4562492370605
568,53.0912,8.68814373016357
569,53.0943,3.16912698745728
570,53.0972,7.5557746887207
571,53.1125,5.9382848739624
572,53.1161,10.8367586135864
573,53.1208,9.27374935150146
574,53.1294,4.9653263092041
575,53.1334,7.39882564544678
576,53.1428,7.06599426269531
577,53.1572,13.651294708252
578,53.1618,5.09534025192261
579,53.1682,3.1274733543396
580,53.1732,4.85361528396606
581,53.1804,4.46999788284302
582,53.1858,4.59859657287598
583,53.1947,4.11423587799072
584,53.1998,19.1526756286621
585,53.2072,15.637246131897
586,53.2135,3.75324869155884
587,53.2232,10.1216526031494
588,53.2281,9.25078392028809
589,53.2344,15.8051376342773
590,53.2386,10.4803380966187
591,53.2432,6.83305740356445
592,53.2482,18.0223693847656
593,53.2535,2.46939468383789
594,53.2585,8.53691482543945
595,53.2643,4.03537797927856
596,53.2709,4.90586423873901
597,53.2752,7.00954055786133
598,53.2791,3.05097556114197
599,53.2822,16.5284099578857
600,53.2860,15.1839752197266
601,53.2899,11.8690242767334
602,53.2932,4.73773145675659
603,53.2978,8.02794742584229
604,53.3025,15.7401742935181
605,53.3084,6.5544171333313
606,53.3136,12.6580610275269
607,53.3197,12.458869934082
608,53.3230,7.3575234413147
609,53.3260,2.6540858745575
610,53.3295,7.85360288619995
611,53.3348,6.11161088943481
612,53.3374,6.98828506469727
613,53.3408,2.71636509895325
614,53.3447,9.90767765045166
615,53.3477,5.20304250717163
616,53.3531,6.68994808197021
617,53.3575,4.50675439834595
618,53.3625,19.8853797912598
619,53.3673,6.80752372741699
620,53.3711,21.9638633728027
621,53.3776,16.5899696350098
622,53.3848,8.90526485443115
623,53.3912,6.46875381469727
624,53.3965,7.8392333984375
625,53.4012,7.47734403610229
626,53.4061,3.32580828666687
627,53.4127,6.38188552856445
628,53.4173,5.13782835006714
629,53.4212,11.5750522613525
630,53.4261,13.5485143661499
631,53.4303,12.6146259307861
632,53.4340,4.68837785720825
633,53.4415,5.77395582199097
634,53.4455,13.2529821395874
635,53.4530,6.96985626220703
636,53.4605,9.19849872589111
637,53.4643,12.5500898361206
638,53.4685,7.86493682861328
639,53.4730,2.85199213027954
640,53.4769,11.0495634078979
641,53.4795,4.72210168838501
642,53.4846,11.2893800735474
643,53.4871,10.7596502304077
644,53.4913,2.83814454078674
645,53.4951,4.0523419380188
646,53.4989,5.87853574752808
647,53.5051,7.78388214111328
648,53.5087,8.49224185943604
649,53.5135,15.415488243103
650,53.5201,9.6375675201416
651,53.5265,15.6575479507446
652,53.5304,7.83067655563354
653,53.5340,4.09853219985962
654,53.5401,11.032732963562
655,53.5489,11.5696954727173
656,53.5602,6.45801782608032
657,53.5631,15.7506723403931
658,53.5685,5.99534225463867
659,53.5727,15.9674339294434
660,53.5827,16.1035099029541
661,53.5878,3.53489637374878
662,53.5945,8.628005027771
663,53.5992,11.7025814056396
664,53.6044,8.4774923324585
665,53.6084,14.5641889572144
666,53.6182,2.62933087348938
667,53.6314,8.1447868347168
668,53.6393,8.60994911193848
669,53.6424,5.66768264770508
670,53.6463,16.4218406677246
