#"-ESI Scan (rt: 0.058-0.996 min, 79 scans) Frag=175.0V 11B.d "
#Point,X(Thompsons),Y(Counts)
0,50.0036,15.9688768386841
1,50.0130,6.23946046829224
2,50.0214,15.5577640533447
3,50.0250,5.01102876663208
4,50.0278,2.94946265220642
5,50.0330,3.97479557991028
6,50.0369,16.8442134857178
7,50.0398,3.16882061958313
8,50.0448,14.6073751449585
9,50.0498,6.51704120635986
10,50.0524,8.46120929718018
11,50.0557,6.78634452819824
12,50.0598,5.16121959686279
13,50.0641,9.52393054962158
14,50.0709,6.50562763214111
15,50.0748,8.47833919525146
16,50.0813,8.49940299987793
17,50.0855,8.6631326675415
18,50.0899,17.6715126037598
19,50.0946,13.5501289367676
20,50.0974,10.6837873458862
21,50.1007,3.62355375289917
22,50.1043,2.73780560493469
23,50.1152,3.011310338974
24,50.1193,23.4256477355957
25,50.1229,4.48561573028564
26,50.1286,16.9414558410645
27,50.1329,16.380090713501
28,50.1365,8.29569435119629
29,50.1412,18.9303550720215
30,50.1468,5.38483572006226
31,50.1527,5.82439661026001
32,50.1568,14.4698343276978
33,50.1603,2.99125003814697
34,50.1644,8.8057222366333
35,50.1690,8.05099582672119
36,50.1732,4.46677207946777
37,50.1784,12.6865320205688
38,50.1838,18.3777694702148
39,50.1890,18.8297729492188
40,50.1965,13.2387723922729
41,50.1989,6.23333358764648
42,50.2031,14.9466753005981
43,50.2100,12.9611377716064
44,50.2135,7.95452785491943
45,50.2201,11.8010606765747
46,50.2300,13.4164390563965
47,50.2340,9.73099136352539
48,50.2372,5.06962013244629
49,50.2435,10.2318468093872
50,50.2482,9.30679512023926
51,50.2592,5.34484100341797
52,50.2619,8.7916145324707
53,50.2665,14.0407514572144
54,50.2698,4.13372182846069
55,50.2727,7.1956205368042
56,50.2776,3.61210155487061
57,50.2807,3.85322213172913
58,50.2857,17.6733016967773
59,50.2922,3.50767803192139
60,50.2953,12.3136987686157
61,50.3058,2.82327580451965
62,50.3136,9.48135852813721
63,50.3208,11.7702045440674
64,50.3240,9.39845180511475
65,50.3288,7.8577299118042
66,50.3340,16.7833461761475
67,50.3412,10.9699516296387
68,50.3476,9.16528511047363
69,50.3532,7.72452306747437
70,50.3571,18.0253887176514
71,50.3666,10.9229679107666
72,50.3703,7.63823366165161
73,50.3754,8.55827522277832
74,50.3797,5.79760026931763
75,50.3856,8.72338676452637
76,50.3911,5.38416290283203
77,50.3978,4.97866201400757
78,50.4000,8.18953609466553
79,50.4064,8.9550838470459
80,50.4128,28.2107734680176
81,50.4169,18.2910232543945
82,50.4215,6.55550622940063
83,50.4266,9.95108509063721
84,50.4303,16.0586967468262
85,50.4377,7.83008289337158
86,50.4408,10.5073299407959
87,50.4444,7.40011072158813
88,50.4519,3.71995449066162
89,50.4560,15.73974609375
90,50.4609,18.8197059631348
91,50.4657,13.4117450714111
92,50.4738,11.7325706481934
93,50.4778,11.2394351959229
94,50.4848,17.4287414550781
95,50.4894,14.7856817245483
96,50.4941,3.29630780220032
97,50.4973,12.579418182373
98,50.5017,8.33386421203613
99,50.5054,3.78576278686523
100,50.5089,5.55621719360352
101,50.5134,4.166579246521
102,50.5161,13.7926454544067
103,50.5214,16.8843975067139
104,50.5240,2.53486037254334
105,50.5270,12.4587354660034
106,50.5323,6.37583446502686
107,50.5417,17.4845485687256
108,50.5484,11.8203973770142
109,50.5538,5.62567234039307
110,50.5602,11.2456932067871
111,50.5657,21.4488639831543
112,50.5695,7.2704119682312
113,50.5726,18.125452041626
114,50.5767,5.20912456512451
115,50.5820,6.42827033996582
116,50.5864,14.3398189544678
117,50.5905,14.5843238830566
118,50.5950,10.4276762008667
119,50.5980,6.23924589157104
120,50.6011,20.9651794433594
121,50.6060,10.721363067627
122,50.6096,8.38557052612305
123,50.6127,2.80833888053894
124,50.6175,9.89022731781006
125,50.6234,6.17706203460693
126,50.6273,2.55713081359863
127,50.6333,3.24218940734863
128,50.6476,8.496750831604
129,50.6562,20.6508388519287
130,50.6654,3.18988490104675
131,50.6702,19.08225440979
132,50.6753,19.9488887786865
133,50.6842,14.0637950897217
134,50.6902,14.0529136657715
135,50.6927,15.9169921875
136,50.6967,7.03341960906982
137,50.7007,11.5351457595825
138,50.7058,3.77156209945679
139,50.7113,3.04303789138794
140,50.7181,7.19611740112305
141,50.7213,17.7462368011475
142,50.7267,11.4114036560059
143,50.7306,9.01009941101074
144,50.7336,22.946605682373
145,50.7424,13.9621658325195
146,50.7459,6.37368822097778
147,50.7502,7.15128374099731
148,50.7585,11.1060972213745
149,50.7669,19.0165328979492
150,50.7781,12.284740447998
151,50.7816,3.50926375389099
152,50.7865,15.5814952850342
153,50.7928,3.24354910850525
154,50.7998,5.48924589157104
155,50.8039,20.6183986663818
156,50.8087,4.31459760665894
157,50.8140,16.3627281188965
158,50.8168,4.7721962928772
159,50.8221,8.3556489944458
160,50.8244,5.45215511322021
161,50.8282,7.56645107269287
162,50.8348,3.65286493301392
163,50.8402,8.4190616607666
164,50.8443,13.3552618026733
165,50.8502,11.476019859314
166,50.8570,4.37293100357056
167,50.8610,16.630163192749
168,50.8660,10.0985479354858
169,50.8731,5.21529531478882
170,50.8764,4.83621883392334
171,50.8817,6.50672626495361
172,50.8933,5.01539421081543
173,50.8974,17.1565532684326
174,50.9039,8.21118640899658
175,50.9079,4.90353107452393
176,50.9127,8.82309532165527
177,50.9185,3.47694993019104
178,50.9215,2.88611555099487
179,50.9243,3.8460910320282
180,50.9309,21.5044631958008
181,50.9357,20.0710220336914
182,50.9423,8.50997924804688
183,50.9471,3.89781975746155
184,50.9556,14.665717124939
185,50.9619,21.5163536071777
186,50.9651,3.84060978889465
187,50.9684,9.14547824859619
188,50.9720,3.50714564323425
189,50.9757,4.58234167098999
190,50.9796,12.7687911987305
191,50.9895,12.8001689910889
192,50.9977,6.77325534820557
193,51.0008,19.2266979217529
194,51.0041,3.54661822319031
195,51.0081,21.6053638458252
196,51.0149,4.67544746398926
197,51.0193,3.64923143386841
198,51.0240,32.0395355224609
199,51.0266,12.1730880737305
200,51.0369,6.7382698059082
201,51.0402,3.88975811004639
202,51.0458,12.4522647857666
203,51.0537,11.9952096939087
204,51.0580,8.56237030029297
205,51.0617,14.532886505127
206,51.0660,7.0166277885437
207,51.0701,26.2705574035645
208,51.0801,10.0763664245605
209,51.0846,3.13047432899475
210,51.0925,5.01009082794189
211,51.0958,13.7749853134155
212,51.1027,8.66903591156006
213,51.1055,3.28084635734558
214,51.1102,11.6330585479736
215,51.1150,5.72875452041626
216,51.1214,2.69623970985413
217,51.1244,5.02078771591187
218,51.1283,6.80111122131348
219,51.1347,6.81190824508667
220,51.1413,7.52828025817871
221,51.1444,7.89042568206787
222,51.1465,5.78452348709106
223,51.1517,10.4782495498657
224,51.1560,4.85490846633911
225,51.1614,7.83749914169312
226,51.1697,11.5922517776489
227,51.1752,3.74730515480042
228,51.1820,3.62959241867065
229,51.1922,5.87920618057251
230,51.1997,8.41543960571289
231,51.2060,3.7450270652771
232,51.2092,10.3108901977539
233,51.2139,11.681266784668
234,51.2217,3.34729385375977
235,51.2273,13.8419713973999
236,51.2316,12.1083936691284
237,51.2407,2.64417362213135
238,51.2517,9.77411937713623
239,51.2541,8.82623481750488
240,51.2617,17.7745532989502
241,51.2659,10.8872270584106
242,51.2711,6.23369359970093
243,51.2746,21.4853649139404
244,51.2798,4.87254190444946
245,51.2859,8.34750556945801
246,51.2925,3.21321892738342
247,51.2986,3.88390922546387
248,51.3087,17.7228679656982
249,51.3171,5.90800046920776
250,51.3195,9.57132816314697
251,51.3246,24.2413806915283
252,51.3280,10.6363821029663
253,51.3385,7.8921971321106
254,51.3437,9.02108860015869
255,51.3508,11.5894775390625
256,51.3565,2.63374495506287
257,51.3600,22.0748291015625
258,51.3645,15.2611255645752
259,51.3680,4.20857858657837
260,51.3740,17.6864490509033
261,51.3823,4.41582298278809
262,51.3850,10.0808410644531
263,51.3878,5.38825082778931
264,51.3924,4.65293788909912
265,51.3951,13.9692077636719
266,51.3990,14.6430044174194
267,51.4041,10.2091102600098
268,51.4090,5.58180618286133
269,51.4113,10.7983417510986
270,51.4153,7.83243608474731
271,51.4195,2.64010620117188
272,51.4282,2.72219395637512
273,51.4342,5.93421411514282
274,51.4408,6.18698263168335
275,51.4450,9.6908483505249
276,51.4487,10.755184173584
277,51.4552,9.50510025024414
278,51.4594,14.2927322387695
279,51.4619,9.0222339630127
280,51.4678,12.3829574584961
281,51.4761,13.4954652786255
282,51.4825,10.3187370300293
283,51.4862,16.1153926849365
284,51.4934,2.59056377410889
285,51.4976,7.00573110580444
286,51.5046,5.68325281143188
287,51.5080,13.6587858200073
288,51.5120,5.41736125946045
289,51.5227,3.33872199058533
290,51.5280,4.77013826370239
291,51.5326,10.7890701293945
292,51.5370,12.2768602371216
293,51.5413,6.24710273742676
294,51.5451,9.13760852813721
295,51.5480,5.49788236618042
296,51.5548,7.20518016815186
297,51.5625,18.0400428771973
298,51.5648,12.5146112442017
299,51.5699,6.34384870529175
300,51.5773,14.1189022064209
301,51.5804,3.3007869720459
302,51.5902,11.2231931686401
303,51.5950,11.6185836791992
304,51.5982,7.36716032028198
305,51.6017,8.0371265411377
306,51.6065,7.55185222625732
307,51.6159,19.4859447479248
308,51.6232,4.99618005752563
309,51.6283,9.04336929321289
310,51.6329,5.95991706848145
311,51.6382,11.1978530883789
312,51.6440,13.7198543548584
313,51.6499,9.6675443649292
314,51.6537,3.36715316772461
315,51.6590,18.5336761474609
316,51.6661,6.35458898544312
317,51.6701,22.8722629547119
318,51.6753,3.01644539833069
319,51.6824,7.6155481338501
320,51.6865,9.38159370422363
321,51.6913,15.7261009216309
322,51.6970,6.65230655670166
323,51.7027,14.3234462738037
324,51.7060,5.68101263046265
325,51.7097,4.0553035736084
326,51.7136,15.4039258956909
327,51.7221,8.27422046661377
328,51.7268,25.7277870178223
329,51.7349,16.8902320861816
330,51.7380,5.26650476455688
331,51.7424,17.8589878082275
332,51.7458,7.88675594329834
333,51.7605,13.8993673324585
334,51.7666,2.87663888931274
335,51.7695,3.21855211257935
336,51.7747,15.3018674850464
337,51.7854,4.84990930557251
338,51.7893,5.45749855041504
339,51.7941,12.3798580169678
340,51.7980,12.1687517166138
341,51.8007,5.41858530044556
342,51.8095,8.48761653900146
343,51.8137,23.0124549865723
344,51.8174,12.3799991607666
345,51.8315,4.7329797744751
346,51.8356,10.3968315124512
347,51.8437,15.5755386352539
348,51.8496,6.64940929412842
349,51.8525,3.00307369232178
350,51.8557,7.83674573898315
351,51.8631,3.8923077583313
352,51.8696,8.68156814575195
353,51.8761,7.00292491912842
354,51.8816,7.89277124404907
355,51.8922,8.88703346252441
356,51.8980,17.4471015930176
357,51.9012,4.3962025642395
358,51.9073,12.986102104187
359,51.9130,9.68155097961426
360,51.9156,13.1481838226318
361,51.9252,2.82702112197876
362,51.9303,6.09952974319458
363,51.9363,15.0629167556763
364,51.9416,10.9826717376709
365,51.9475,14.3033800125122
366,51.9568,3.10175275802612
367,51.9692,3.99407148361206
368,51.9740,8.50751876831055
369,51.9791,5.03824377059937
370,51.9843,3.03804206848145
371,51.9905,21.2447147369385
372,51.9984,3.09083318710327
373,52.0028,7.94473457336426
374,52.0086,8.90738391876221
375,52.0155,12.8008241653442
376,52.0205,2.784823179245
377,52.0246,3.17795515060425
378,52.0302,23.545316696167
379,52.0359,12.5511808395386
380,52.0433,9.18637943267822
381,52.0471,9.67289543151855
382,52.0511,5.44167470932007
383,52.0849,6.41423082351685
384,52.0886,4.40563583374023
385,52.0995,2.83379530906677
386,52.1031,21.5785179138184
387,52.1049,5.68378782272339
388,52.1094,15.4961490631104
389,52.1181,13.4183645248413
390,52.1231,3.43352580070496
391,52.1271,11.573016166687
392,52.1360,13.1596622467041
393,52.1403,6.46850490570068
394,52.1432,3.86548161506653
395,52.1471,8.71971988677979
396,52.1561,5.80661344528198
397,52.1625,2.69198322296143
398,52.1655,5.8640456199646
399,52.1700,6.53460454940796
400,52.1746,8.13166236877441
401,52.1831,6.13866901397705
402,52.1909,12.7909202575684
403,52.2038,7.95098495483398
404,52.2079,10.3284692764282
405,52.2128,19.2834873199463
406,52.2170,6.9627833366394
407,52.2234,22.9836006164551
408,52.2285,11.0538110733032
409,52.2328,9.80539989471436
410,52.2390,7.00937461853027
411,52.2446,9.57035541534424
412,52.2482,3.28032517433167
413,52.2520,5.80785846710205
414,52.2544,11.0528192520142
415,52.2618,21.3131580352783
416,52.2660,12.3370542526245
417,52.2766,2.65384888648987
418,52.2800,12.8480081558228
419,52.2839,17.8081951141357
420,52.2881,11.3971118927002
421,52.2935,6.04929876327515
422,52.3022,10.9362936019897
423,52.3085,3.30489301681519
424,52.3123,10.4823570251465
425,52.3169,13.469033241272
426,52.3305,2.98532056808472
427,52.3340,5.26779890060425
428,52.3382,6.10454797744751
429,52.3420,6.76542186737061
430,52.3495,5.17824983596802
431,52.3594,12.5050268173218
432,52.3631,6.48790502548218
433,52.3653,12.9687194824219
434,52.3688,6.25522089004517
435,52.3757,8.26414203643799
436,52.3840,5.284264087677
437,52.3905,10.3242692947388
438,52.3948,5.91970300674438
439,52.4009,3.30618715286255
440,52.4089,9.24291896820068
441,52.4123,5.93792963027954
442,52.4159,6.9933032989502
443,52.4194,12.0172138214111
444,52.4244,3.15379738807678
445,52.4343,5.96693420410156
446,52.4413,11.4191598892212
447,52.4497,5.21895027160645
448,52.4530,3.58294105529785
449,52.4568,7.77473878860474
450,52.4599,5.47167444229126
451,52.4724,5.10132026672363
452,52.4753,6.29248094558716
453,52.4808,10.5875902175903
454,52.4835,5.50736379623413
455,52.4866,4.17616271972656
456,52.4894,12.7239112854004
457,52.4931,13.9953813552856
458,52.4993,10.4784088134766
459,52.5072,11.1675453186035
460,52.5115,4.73121452331543
461,52.5180,7.24298191070557
462,52.5221,8.66540336608887
463,52.5264,9.70949935913086
464,52.5330,10.2429466247559
465,52.5389,20.8041820526123
466,52.5414,8.69235229492188
467,52.5457,16.3353805541992
468,52.5542,17.2559223175049
469,52.5580,3.33575177192688
470,52.5609,10.1584148406982
471,52.5703,13.0104675292969
472,52.5736,2.71341776847839
473,52.5805,6.6633472442627
474,52.5897,13.6622562408447
475,52.5929,12.9294624328613
476,52.5989,14.3102931976318
477,52.6074,3.10026121139526
478,52.6145,5.13019800186157
479,52.6193,4.28761672973633
480,52.6255,5.0537543296814
481,52.6342,3.46356248855591
482,52.6416,11.1193046569824
483,52.6480,4.21527147293091
484,52.6531,6.88561248779297
485,52.6576,13.5783519744873
486,52.6616,10.1606025695801
487,52.6661,5.36204671859741
488,52.6720,10.6591968536377
489,52.6765,3.28107738494873
490,52.6797,9.85554027557373
491,52.6858,17.2042102813721
492,52.6892,7.7251148223877
493,52.6934,8.74110698699951
494,52.6954,5.01914548873901
495,52.6990,10.5807209014893
496,52.7047,4.73355007171631
497,52.7093,2.68849754333496
498,52.7139,8.12240505218506
499,52.7192,12.6867961883545
500,52.7236,6.74745512008667
501,52.7287,15.2867631912231
502,52.7344,19.7142391204834
503,52.7406,15.9369564056396
504,52.7469,6.15355587005615
505,52.7516,3.88064694404602
506,52.7558,14.5203266143799
507,52.7627,10.4282779693604
508,52.7663,7.33478879928589
509,52.7700,2.78300189971924
510,52.7732,5.85650873184204
511,52.7770,12.2800273895264
512,52.7806,5.07093000411987
513,52.7924,14.0418329238892
514,52.7962,4.44019412994385
515,52.7993,5.55530118942261
516,52.8032,14.5979175567627
517,52.8072,16.5467262268066
518,52.8122,5.86089420318604
519,52.8161,8.94992351531982
520,52.8288,11.1642274856567
521,52.8331,3.78043580055237
522,52.8386,22.4784336090088
523,52.8413,9.92205619812012
524,52.8445,3.71840882301331
525,52.8470,5.44761276245117
526,52.8513,23.0712852478027
527,52.8555,19.407133102417
528,52.8605,13.7652740478516
529,52.8643,8.72607612609863
530,52.8690,12.9438905715942
531,52.8771,11.4206304550171
532,52.8891,6.94026517868042
533,52.8938,16.5782642364502
534,52.9024,3.73536396026611
535,52.9094,8.58653163909912
536,52.9174,9.27062320709229
537,52.9212,3.0633065700531
538,52.9247,8.51187515258789
539,52.9331,13.5351209640503
540,52.9401,2.9578058719635
541,52.9453,11.3470087051392
542,52.9490,17.4881572723389
543,52.9532,6.42521476745605
544,52.9643,24.6561717987061
545,52.9693,4.98391008377075
546,52.9736,6.26082181930542
547,52.9804,18.9437980651855
548,52.9848,14.526123046875
549,52.9887,11.1220417022705
550,52.9947,17.3440437316895
551,53.0003,5.51800107955933
552,53.0037,5.1280665397644
553,53.0074,8.07268524169922
554,53.0129,2.82278490066528
555,53.0212,9.84006786346436
556,53.0258,4.7765679359436
557,53.0335,23.2774925231934
558,53.0370,8.09008502960205
559,53.0407,21.2633800506592
560,53.0449,3.46132373809814
561,53.0529,12.1256418228149
562,53.0593,11.2525453567505
563,53.0648,2.87394523620605
564,53.0690,8.39694499969482
565,53.0738,7.19449043273926
566,53.0828,4.78744220733643
567,53.0869,9.48159790039063
568,53.0908,10.2746429443359
569,53.0977,3.6572277545929
570,53.1052,8.45189476013184
571,53.1095,13.1663427352905
572,53.1188,6.01098155975342
573,53.1226,14.5668172836304
574,53.1310,14.6465816497803
575,53.1368,19.1041240692139
576,53.1417,5.55412101745605
577,53.1458,8.57674026489258
578,53.1492,3.0439510345459
579,53.1546,17.2708435058594
580,53.1631,13.1887731552124
581,53.1660,3.74189305305481
582,53.1775,9.83783626556396
583,53.1811,6.33897399902344
584,53.1893,4.25532102584839
585,53.1927,22.6292610168457
586,53.2040,4.93041753768921
587,53.2082,10.0411767959595
588,53.2113,5.09800338745117
589,53.2170,10.3648824691772
590,53.2242,8.35563468933105
591,53.2302,4.88049411773682
592,53.2339,12.8851928710938
593,53.2391,8.92049121856689
594,53.2439,11.5115528106689
595,53.2532,5.05631732940674
596,53.2615,17.5637969970703
597,53.2656,6.22363138198853
598,53.2723,2.92238783836365
599,53.2754,6.08489465713501
600,53.2787,3.10361623764038
601,53.2823,14.0089588165283
602,53.2875,21.6695861816406
603,53.2906,3.43581652641296
604,53.2958,3.42319989204407
605,53.3030,10.7384176254272
606,53.3089,5.9840841293335
607,53.3120,11.1800804138184
608,53.3170,9.11852836608887
609,53.3235,13.9265851974487
610,53.3301,12.2136402130127
611,53.3353,10.3023090362549
612,53.3395,3.71827912330627
613,53.3523,14.7376289367676
614,53.3557,6.01594495773315
615,53.3587,11.6277713775635
616,53.3654,25.696216583252
617,53.3742,27.4486656188965
618,53.3827,20.852840423584
619,53.3874,6.7944974899292
620,53.3911,5.34711360931396
621,53.3954,2.67791938781738
622,53.4011,8.16842651367188
623,53.4052,5.83195161819458
624,53.4137,10.7585344314575
625,53.4249,15.4873762130737
626,53.4287,16.2598934173584
627,53.4317,4.93948078155518
628,53.4376,12.827205657959
629,53.4447,11.2027902603149
630,53.4485,20.167444229126
631,53.4551,9.40194511413574
632,53.4587,6.66432905197144
633,53.4647,22.358118057251
634,53.4739,8.98476886749268
635,53.4790,5.29604959487915
636,53.4893,17.992223739624
637,53.4933,19.7319374084473
638,53.5002,3.13835096359253
639,53.5029,7.94642210006714
640,53.5131,22.2443408966064
641,53.5163,3.66230416297913
642,53.5202,11.1617984771729
643,53.5247,7.66100788116455
644,53.5298,7.69864559173584
645,53.5351,9.45355129241943
646,53.5424,5.34272146224976
647,53.5468,22.6366596221924
648,53.5504,7.97048234939575
649,53.5541,2.63664484024048
650,53.5587,2.8665611743927
651,53.5647,5.65609216690063
652,53.5699,8.88436508178711
653,53.5734,13.3317947387695
654,53.5771,4.80553102493286
655,53.5808,6.58158922195435
656,53.5840,4.01800441741943
657,53.5875,9.7924108505249
658,53.5911,12.987380027771
659,53.5955,2.82526135444641
660,53.6000,9.55884647369385
661,53.6182,16.3744506835938
662,53.6213,5.05143117904663
663,53.6263,10.1465921401978
664,53.6318,11.5616569519043
665,53.6363,7.00479936599731
666,53.6395,2.82759833335876
667,53.6427,5.12697792053223
668,53.6476,7.36477613449097
