#"-ESI Scan (rt: 0.055-1.018 min, 80 scans) Frag=175.0V 14.d "
#Point,X(Thompsons),Y(Counts)
0,50.0005,6.01590633392334
1,50.0036,8.33982467651367
2,50.0073,13.3316440582275
3,50.0119,9.8347339630127
4,50.0161,6.61409521102905
5,50.0200,4.30955123901367
6,50.0234,13.4398527145386
7,50.0275,10.7171831130981
8,50.0332,3.5664381980896
9,50.0363,14.8747053146362
10,50.0409,3.46500015258789
11,50.0477,4.29320049285889
12,50.0515,9.45714950561523
13,50.0580,6.69104290008545
14,50.0612,14.0226154327393
15,50.0719,20.2456455230713
16,50.0766,15.5037631988525
17,50.0842,2.96524000167847
18,50.0879,8.94918632507324
19,50.0925,21.8284950256348
20,50.0964,8.84213256835938
21,50.1006,2.61614584922791
22,50.1038,4.3650803565979
23,50.1069,7.83445882797241
24,50.1124,9.3906421661377
25,50.1164,4.70794343948364
26,50.1229,11.333646774292
27,50.1296,17.0112571716309
28,50.1375,2.52602052688599
29,50.1429,3.08305907249451
30,50.1485,11.2826910018921
31,50.1539,5.68211460113525
32,50.1618,3.28006482124329
33,50.1701,8.8094310760498
34,50.1742,4.94444513320923
35,50.1789,15.5662384033203
36,50.1863,9.25390625
37,50.1908,4.02842044830322
38,50.1941,10.9603929519653
39,50.2004,12.0435104370117
40,50.2039,14.4732112884521
41,50.2078,21.2649612426758
42,50.2100,15.9475727081299
43,50.2181,6.6827712059021
44,50.2209,3.71309518814087
45,50.2248,4.65558385848999
46,50.2287,8.47161674499512
47,50.2337,2.94788122177124
48,50.2401,4.26534795761108
49,50.2463,9.49788284301758
50,50.2504,15.6068706512451
51,50.2593,15.207257270813
52,50.2661,10.0630922317505
53,50.2701,9.90511035919189
54,50.2775,7.85376453399658
55,50.2849,15.1165037155151
56,50.2900,11.5106830596924
57,50.2997,9.06707000732422
58,50.3043,7.80805683135986
59,50.3077,5.15641307830811
60,50.3131,20.992603302002
61,50.3178,5.37991046905518
62,50.3265,2.61836290359497
63,50.3360,3.55156254768372
64,50.3397,10.0612211227417
65,50.3488,6.66730737686157
66,50.3529,9.51832008361816
67,50.3629,8.03951549530029
68,50.3660,5.72980499267578
69,50.3697,17.170202255249
70,50.3765,12.5628509521484
71,50.3790,8.79671287536621
72,50.3854,6.29975986480713
73,50.3890,2.55713987350464
74,50.3941,17.6877841949463
75,50.4070,12.3945331573486
76,50.4161,9.13276290893555
77,50.4198,8.75754547119141
78,50.4271,6.79778146743774
79,50.4337,7.74462985992432
80,50.4380,10.1471891403198
81,50.4407,6.02768182754517
82,50.4447,6.52076196670532
83,50.4480,4.67937183380127
84,50.4553,12.794002532959
85,50.4594,16.7567958831787
86,50.4637,10.9069738388062
87,50.4710,7.71245861053467
88,50.4757,5.73651170730591
89,50.4789,5.30178546905518
90,50.4825,4.29692983627319
91,50.4880,6.92788076400757
92,50.4932,2.74609375
93,50.4997,2.93445324897766
94,50.5072,9.68245029449463
95,50.5136,9.49090957641602
96,50.5155,9.61435890197754
97,50.5184,4.02503490447998
98,50.5234,8.70485496520996
99,50.5262,5.89642858505249
100,50.5317,20.5940113067627
101,50.5391,3.3642840385437
102,50.5420,15.0735721588135
103,50.5495,6.69230794906616
104,50.5535,2.62734365463257
105,50.5566,12.4109745025635
106,50.5641,8.87636375427246
107,50.5701,6.11958980560303
108,50.5750,7.88855123519897
109,50.5793,10.7942695617676
110,50.5830,8.81106662750244
111,50.5876,10.7664594650269
112,50.5904,16.1491661071777
113,50.5952,14.6144313812256
114,50.6009,11.3482189178467
115,50.6049,16.3004989624023
116,50.6098,10.8095684051514
117,50.6139,9.70765209197998
118,50.6197,17.9702053070068
119,50.6238,6.38214302062988
120,50.6268,9.48406982421875
121,50.6298,10.3045482635498
122,50.6350,7.3318305015564
123,50.6397,22.8016166687012
124,50.6437,4.64223480224609
125,50.6491,7.64432287216187
126,50.6536,4.8130030632019
127,50.6594,6.27213335037231
128,50.6630,7.08277893066406
129,50.6666,7.64694213867188
130,50.6733,2.68472790718079
131,50.6787,10.4314575195313
132,50.6818,8.0763988494873
133,50.6959,11.7634887695313
134,50.7012,9.13690757751465
135,50.7063,2.94452404975891
136,50.7117,7.08115386962891
137,50.7149,5.8140754699707
138,50.7192,9.7060375213623
139,50.7223,14.2636814117432
140,50.7277,3.00412130355835
141,50.7318,3.25023031234741
142,50.7355,20.177978515625
143,50.7428,5.41738271713257
144,50.7473,11.2645893096924
145,50.7546,6.18998050689697
146,50.7597,8.68077278137207
147,50.7637,2.55170464515686
148,50.7666,9.92871570587158
149,50.7732,13.9863815307617
150,50.7781,3.07619047164917
151,50.7811,5.45347595214844
152,50.7854,18.2298526763916
153,50.7904,13.6420269012451
154,50.8011,3.22573041915894
155,50.8058,19.6205139160156
156,50.8097,5.81839990615845
157,50.8122,5.1685004234314
158,50.8149,7.54420328140259
159,50.8180,9.61173820495605
160,50.8232,9.60609912872314
161,50.8261,3.04096269607544
162,50.8317,9.24479389190674
163,50.8365,18.5177440643311
164,50.8423,18.415828704834
165,50.8486,6.30857610702515
166,50.8519,3.67346954345703
167,50.8560,7.443922996521
168,50.8603,10.9343414306641
169,50.8641,21.2269592285156
170,50.8673,4.86850309371948
171,50.8734,4.17940330505371
172,50.8779,15.1371259689331
173,50.8849,20.2815742492676
174,50.8885,8.24719619750977
175,50.8921,3.07967185974121
176,50.9035,2.87522315979004
177,50.9068,3.6155047416687
178,50.9180,12.4928913116455
179,50.9264,3.15002393722534
180,50.9304,4.83168506622314
181,50.9394,16.9349937438965
182,50.9499,14.0498914718628
183,50.9550,7.94664669036865
184,50.9591,10.5973997116089
185,50.9644,10.3951768875122
186,50.9694,2.85052800178528
187,50.9758,5.50493574142456
188,50.9858,5.39290904998779
189,50.9913,7.42284870147705
190,51.0039,8.81779193878174
191,51.0142,11.4825716018677
192,51.0211,11.8279972076416
193,51.0246,25.2960720062256
194,51.0295,10.5222873687744
195,51.0324,2.6007399559021
196,51.0363,3.13622689247131
197,51.0394,3.74669408798218
198,51.0425,8.88963031768799
199,51.0471,3.33485746383667
200,51.0498,6.45363855361938
201,51.0524,8.01124286651611
202,51.0580,9.70160102844238
203,51.0650,9.76731586456299
204,51.0705,13.5661010742188
205,51.0754,8.42013549804688
206,51.0825,2.698157787323
207,51.0878,5.6738748550415
208,51.0903,2.9140944480896
209,51.0931,6.57166910171509
210,51.0970,11.2129678726196
211,51.0999,3.79226183891296
212,51.1063,15.4848690032959
213,51.1134,7.38383483886719
214,51.1208,2.68805027008057
215,51.1237,4.80792188644409
216,51.1278,24.5292816162109
217,51.1338,17.4411544799805
218,51.1411,2.75922131538391
219,51.1442,9.11736869812012
220,51.1482,5.87369203567505
221,51.1573,3.62243890762329
222,51.1609,12.8466215133667
223,51.1660,10.6822290420532
224,51.1694,13.2296810150146
225,51.1803,4.80328941345215
226,51.1881,9.10444068908691
227,51.1922,18.8025398254395
228,51.1961,12.0947895050049
229,51.2087,5.43442058563232
230,51.2139,4.56311130523682
231,51.2186,2.90703129768372
232,51.2222,7.85922765731812
233,51.2255,3.22050547599792
234,51.2329,14.7700481414795
235,51.2369,2.65654754638672
236,51.2411,9.43546581268311
237,51.2438,2.81622290611267
238,51.2481,3.34847593307495
239,51.2522,3.275639295578
240,51.2553,5.57238578796387
241,51.2610,7.22021961212158
242,51.2646,18.6109733581543
243,51.2673,8.22946453094482
244,51.2722,7.8213210105896
245,51.2768,8.04035568237305
246,51.2799,7.62368535995483
247,51.2839,5.7657356262207
248,51.2906,12.5791416168213
249,51.2938,5.28604125976563
250,51.3002,19.3552360534668
251,51.3056,10.2884120941162
252,51.3089,18.1994132995605
253,51.3142,26.6549472808838
254,51.3278,8.86112022399902
255,51.3307,3.36003446578979
256,51.3347,2.68755388259888
257,51.3382,6.18985176086426
258,51.3411,3.17663049697876
259,51.3453,7.49378681182861
260,51.3487,8.76213073730469
261,51.3558,12.0167484283447
262,51.3652,4.39736127853394
263,51.3680,14.5308742523193
264,51.3729,3.60288763046265
265,51.3792,2.68534016609192
266,51.3813,7.52123117446899
267,51.3893,4.8986177444458
268,51.3950,7.88142251968384
269,51.3995,10.2038860321045
270,51.4091,6.83666706085205
271,51.4151,15.0064678192139
272,51.4205,2.50289344787598
273,51.4254,7.87452077865601
274,51.4341,3.59074521064758
275,51.4409,3.75821042060852
276,51.4437,6.05684185028076
277,51.4469,2.76635217666626
278,51.4499,4.03753519058228
279,51.4594,13.7025804519653
280,51.4631,6.94967746734619
281,51.4683,6.46990299224854
282,51.4706,11.0091276168823
283,51.4753,7.42746353149414
284,51.4795,5.9377384185791
285,51.4840,16.7383728027344
286,51.4891,12.2829465866089
287,51.4932,10.1420879364014
288,51.4974,11.1994867324829
289,51.5017,17.6719398498535
290,51.5081,7.18530941009521
291,51.5123,22.9854125976563
292,51.5156,2.79927778244019
293,51.5183,3.16457772254944
294,51.5238,5.06649446487427
295,51.5291,18.8680515289307
296,51.5340,14.69944190979
297,51.5371,6.0949068069458
298,51.5400,9.76552391052246
299,51.5450,2.93802618980408
300,51.5482,5.92836093902588
301,51.5513,7.8760461807251
302,51.5596,5.84247493743896
303,51.5628,2.69948697090149
304,51.5689,29.391565322876
305,51.5727,5.48276138305664
306,51.5772,10.5637912750244
307,51.5822,15.783561706543
308,51.5879,4.51249980926514
309,51.5968,16.0311641693115
310,51.6023,17.2941799163818
311,51.6078,26.3539619445801
312,51.6123,3.80638194084167
313,51.6205,5.46641254425049
314,51.6239,8.12358856201172
315,51.6264,2.70770311355591
316,51.6296,10.4424753189087
317,51.6357,2.62352085113525
318,51.6399,15.6136827468872
319,51.6445,7.50100708007813
320,51.6492,20.1784725189209
321,51.6543,11.825439453125
322,51.6603,19.5073471069336
323,51.6668,11.0601215362549
324,51.6698,11.1066608428955
325,51.6749,6.8318452835083
326,51.6794,13.451886177063
327,51.6833,10.1143236160278
328,51.6882,11.7021198272705
329,51.6955,3.93191027641296
330,51.6995,3.6657452583313
331,51.7030,17.4624252319336
332,51.7104,8.11585903167725
333,51.7153,2.68697905540466
334,51.7191,8.09939479827881
335,51.7242,5.40516662597656
336,51.7306,12.846887588501
337,51.7357,13.0629549026489
338,51.7408,10.0652809143066
339,51.7494,10.3512935638428
340,51.7557,26.1775207519531
341,51.7608,15.7780199050903
342,51.7660,3.97934794425964
343,51.7696,19.0483016967773
344,51.7753,10.1149044036865
345,51.7777,6.49273300170898
346,51.7851,14.4253282546997
347,51.7929,6.03324794769287
348,51.7965,7.80140161514282
349,51.7994,3.91805577278137
350,51.8056,3.4790985584259
351,51.8103,13.2244901657104
352,51.8157,8.32212257385254
353,51.8184,2.80576920509338
354,51.8209,6.40860366821289
355,51.8242,3.33239889144897
356,51.8282,16.399206161499
357,51.8324,12.9278926849365
358,51.8407,2.63236594200134
359,51.8451,10.1508769989014
360,51.8489,9.45323467254639
361,51.8561,20.64967918396
362,51.8594,12.1791210174561
363,51.8652,5.98887920379639
364,51.8685,2.50178050994873
365,51.8728,7.06582927703857
366,51.8771,13.5561199188232
367,51.8834,6.83002758026123
368,51.8899,2.60576319694519
369,51.8950,6.66683101654053
370,51.9006,24.1339740753174
371,51.9058,15.8543367385864
372,51.9086,16.6031703948975
373,51.9134,9.21546936035156
374,51.9211,2.90123534202576
375,51.9260,7.87912607192993
376,51.9313,4.85572910308838
377,51.9356,16.8196506500244
378,51.9400,5.41776895523071
379,51.9429,4.20000839233398
380,51.9469,3.54270815849304
381,51.9506,4.57527303695679
382,51.9566,6.34693622589111
383,51.9616,8.73612213134766
384,51.9666,3.79179954528809
385,51.9705,4.91642141342163
386,51.9758,9.30664253234863
387,51.9840,18.8168716430664
388,51.9868,9.73605537414551
389,51.9935,14.1217164993286
390,51.9983,2.72410726547241
391,52.0104,2.72650957107544
392,52.0134,12.6505117416382
393,52.0201,3.36383199691772
394,52.0231,7.39926290512085
395,52.0292,8.97029590606689
396,52.0337,3.95247960090637
397,52.0418,4.84793424606323
398,52.0455,5.05710220336914
399,52.0491,7.073486328125
400,52.0516,19.9708290100098
401,52.0593,3.52539443969727
402,52.0624,10.0114831924438
403,52.0690,6.17005634307861
404,52.0765,9.61868000030518
405,52.0821,3.42818188667297
406,52.0889,7.63768148422241
407,52.0954,8.98266124725342
408,52.1001,5.94072389602661
409,52.1088,2.58845162391663
410,52.1125,3.0600745677948
411,52.1158,4.83999347686768
412,52.1193,4.10638189315796
413,52.1221,3.90628123283386
414,52.1259,17.0527782440186
415,52.1296,2.69353628158569
416,52.1334,7.16093301773071
417,52.1390,5.82304954528809
418,52.1451,4.99099779129028
419,52.1504,3.35553097724915
420,52.1553,7.54407978057861
421,52.1600,31.6192226409912
422,52.1644,5.68474006652832
423,52.1688,2.99311208724976
424,52.1742,20.8763084411621
425,52.1802,7.70337820053101
426,52.1894,7.11167907714844
427,52.1921,7.38600921630859
428,52.1964,5.1429762840271
429,52.2001,10.2193012237549
430,52.2046,6.3726282119751
431,52.2192,4.83007669448853
432,52.2307,15.0350570678711
433,52.2368,3.50969171524048
434,52.2400,4.0625147819519
435,52.2436,3.52424573898315
436,52.2469,9.16424560546875
437,52.2530,6.56273555755615
438,52.2631,6.50115823745728
439,52.2701,18.4949760437012
440,52.2811,7.13423633575439
441,52.2858,10.6387405395508
442,52.2899,7.73416757583618
443,52.2947,2.93041110038757
444,52.2995,12.1780090332031
445,52.3107,7.54295063018799
446,52.3182,7.41250133514404
447,52.3212,10.1960315704346
448,52.3292,7.4140830039978
449,52.3393,8.4521541595459
450,52.3443,11.3583288192749
451,52.3513,13.8974256515503
452,52.3575,8.52147674560547
453,52.3644,23.1713047027588
454,52.3715,16.3506298065186
455,52.3850,8.94218444824219
456,52.3912,3.8576922416687
457,52.4013,10.3783397674561
458,52.4069,4.46989965438843
459,52.4098,2.80043888092041
460,52.4134,2.99154710769653
461,52.4183,3.24861598014832
462,52.4214,3.07908201217651
463,52.4251,15.0881471633911
464,52.4336,4.78657674789429
465,52.4366,2.98341870307922
466,52.4408,2.77219438552856
467,52.4543,3.28749990463257
468,52.4578,16.0024509429932
469,52.4652,3.15716910362244
470,52.4683,7.78328609466553
471,52.4749,10.6559009552002
472,52.4815,9.69848251342773
473,52.4851,7.8305983543396
474,52.4919,13.8770723342896
475,52.5030,9.94297409057617
476,52.5083,13.1896743774414
477,52.5120,11.6743450164795
478,52.5161,2.53216767311096
479,52.5199,9.61018657684326
480,52.5239,3.07696318626404
481,52.5299,7.49472332000732
482,52.5356,4.7167501449585
483,52.5412,12.6978025436401
484,52.5461,7.54723834991455
485,52.5494,8.34592437744141
486,52.5576,4.35376501083374
487,52.5657,9.62284660339355
488,52.5782,16.5460567474365
489,52.5858,14.9368362426758
490,52.5885,2.87264156341553
491,52.5930,9.42181587219238
492,52.5969,10.2673377990723
493,52.6024,13.9402084350586
494,52.6060,20.5883255004883
495,52.6089,5.21048641204834
496,52.6134,7.04475688934326
497,52.6170,3.15538191795349
498,52.6223,2.86658644676209
499,52.6259,11.2450046539307
500,52.6401,3.65166211128235
501,52.6433,15.3074741363525
502,52.6506,14.4400300979614
503,52.6616,7.38334512710571
504,52.6658,9.61986255645752
505,52.6699,6.98550176620483
506,52.6722,17.4221897125244
507,52.6768,7.26830148696899
508,52.6893,6.58646678924561
509,52.6986,8.01456642150879
510,52.7026,8.85314559936523
511,52.7090,7.10068893432617
512,52.7124,10.0488758087158
513,52.7156,9.41064453125
514,52.7187,28.2719669342041
515,52.7235,6.31703186035156
516,52.7312,11.35853099823
517,52.7365,2.94501161575317
518,52.7394,12.5285234451294
519,52.7421,3.05006122589111
520,52.7462,5.40143299102783
521,52.7518,14.0237636566162
522,52.7583,8.13191413879395
523,52.7649,14.4029693603516
524,52.7698,20.769811630249
525,52.7738,5.19723558425903
526,52.7810,12.1171188354492
527,52.7859,5.90932941436768
528,52.7933,3.70437502861023
529,52.8011,17.4365844726563
530,52.8045,13.3115816116333
531,52.8080,11.0317478179932
532,52.8122,7.86876535415649
533,52.8177,3.53749990463257
534,52.8206,7.26151132583618
535,52.8266,16.1782646179199
536,52.8333,12.8522930145264
537,52.8375,14.5523500442505
538,52.8430,5.20937490463257
539,52.8460,3.38935995101929
540,52.8500,9.27668190002441
541,52.8543,2.59695315361023
542,52.8585,15.8625240325928
543,52.8622,3.20033955574036
544,52.8676,22.1455211639404
545,52.8714,8.73705005645752
546,52.8770,13.3370237350464
547,52.8812,20.0418872833252
548,52.8863,6.49789714813232
549,52.8930,4.24314403533936
550,52.8969,13.2121610641479
551,52.9001,2.61330652236938
552,52.9045,22.0047340393066
553,52.9112,5.13816213607788
554,52.9239,2.81129002571106
555,52.9368,6.60081768035889
556,52.9405,13.7107486724854
557,52.9461,19.0304870605469
558,52.9537,5.98401260375977
559,52.9595,2.80441164970398
560,52.9632,5.13472652435303
561,52.9710,3.59732675552368
562,52.9805,5.88913059234619
563,52.9849,5.97852420806885
564,52.9939,2.60280823707581
565,53.0061,4.20869541168213
566,53.0090,13.3038864135742
567,53.0124,3.30361247062683
568,53.0196,6.09315967559814
569,53.0241,9.670973777771
570,53.0298,5.7850193977356
571,53.0332,2.68827342987061
572,53.0387,23.225248336792
573,53.0417,19.706371307373
574,53.0457,2.80574059486389
575,53.0528,4.15857982635498
576,53.0560,10.2998304367065
577,53.0662,6.43192434310913
578,53.0712,14.5201015472412
579,53.0780,26.0583744049072
580,53.0829,4.29400825500488
581,53.0896,3.81562495231628
582,53.0948,9.84477424621582
583,53.0983,14.5504360198975
584,53.1025,13.7820529937744
585,53.1080,2.97297310829163
586,53.1124,14.0578413009644
587,53.1205,11.4283962249756
588,53.1236,6.63987731933594
589,53.1272,5.41769504547119
590,53.1331,9.90650653839111
591,53.1383,5.97528076171875
592,53.1429,3.06429886817932
593,53.1467,3.63318014144897
594,53.1529,12.8432893753052
595,53.1575,3.3033332824707
596,53.1606,9.50941467285156
597,53.1648,5.89897155761719
598,53.1691,26.3689937591553
599,53.1751,3.87243890762329
600,53.1788,8.77354621887207
601,53.1850,4.97006320953369
602,53.1896,10.8871145248413
603,53.1936,6.34045886993408
604,53.1970,5.04001522064209
605,53.2085,7.91883087158203
606,53.2119,13.6069011688232
607,53.2158,13.2552433013916
608,53.2244,13.302640914917
609,53.2279,11.4700412750244
610,53.2314,5.51654577255249
611,53.2365,4.18489980697632
612,53.2450,7.39416027069092
613,53.2530,3.96514010429382
614,53.2639,13.4273242950439
615,53.2678,7.91361093521118
616,53.2713,7.36599063873291
617,53.2753,5.6265230178833
618,53.2798,14.3123607635498
619,53.2831,17.9520320892334
620,53.2897,5.22251224517822
621,53.2939,2.82673454284668
622,53.2984,13.8919048309326
623,53.3045,15.9141464233398
624,53.3133,8.78528594970703
625,53.3169,19.0356998443604
626,53.3264,6.76567983627319
627,53.3300,8.56529521942139
628,53.3368,9.67201519012451
629,53.3449,2.97696328163147
630,53.3485,9.72379779815674
631,53.3624,6.16631174087524
632,53.3677,17.5908374786377
633,53.3735,15.626070022583
634,53.3773,11.3144311904907
635,53.3810,3.22552061080933
636,53.3861,9.0205192565918
637,53.3925,14.3693790435791
638,53.4001,15.3861112594604
639,53.4047,15.8307952880859
640,53.4099,9.05832386016846
641,53.4141,3.10957336425781
642,53.4186,2.71433568000793
643,53.4221,13.4813232421875
644,53.4273,11.3420076370239
645,53.4306,10.0655269622803
646,53.4347,3.43403196334839
647,53.4388,9.38756275177002
648,53.4442,14.6170654296875
649,53.4501,5.05518770217896
650,53.4574,4.21687030792236
651,53.4620,19.740550994873
652,53.4678,4.66429901123047
653,53.4777,7.05112361907959
654,53.4891,3.4964394569397
655,53.4940,11.080545425415
656,53.4988,24.6752548217773
657,53.5130,19.1798439025879
658,53.5165,6.23581027984619
659,53.5202,15.0940036773682
660,53.5277,12.0275201797485
661,53.5348,19.4553909301758
662,53.5405,3.74010896682739
663,53.5455,13.0667972564697
664,53.5489,4.00699996948242
665,53.5534,4.87984085083008
666,53.5579,8.64709949493408
667,53.5616,2.64898085594177
668,53.5661,5.49037647247314
669,53.5693,15.7433681488037
