#"-ESI Scan (rt: 0.055-1.018 min, 80 scans) Frag=175.0V 18.d "
#Point,X(Thompsons),Y(Counts)
0,50.0044,13.8622951507568
1,50.0076,8.54747295379639
2,50.0121,5.60268259048462
3,50.0217,2.74866342544556
4,50.0253,12.3417987823486
5,50.0292,8.25893592834473
6,50.0323,6.98913288116455
7,50.0384,6.66465997695923
8,50.0424,3.47941160202026
9,50.0478,4.26301527023315
10,50.0507,4.88326501846313
11,50.0535,5.51793479919434
12,50.0567,11.115364074707
13,50.0603,10.3903503417969
14,50.0641,17.1466274261475
15,50.0714,8.0096378326416
16,50.0756,21.884801864624
17,50.0788,2.88624286651611
18,50.0843,7.46600723266602
19,50.0882,6.0800199508667
20,50.0924,6.88040542602539
21,50.0955,17.8296413421631
22,50.0995,6.88572072982788
23,50.1038,9.0622386932373
24,50.1085,5.32904720306396
25,50.1123,19.9291343688965
26,50.1152,10.8138990402222
27,50.1197,18.6249694824219
28,50.1251,14.165415763855
29,50.1285,3.65468740463257
30,50.1328,3.34065055847168
31,50.1362,34.6156196594238
32,50.1432,13.4807147979736
33,50.1490,16.745002746582
34,50.1523,8.5130672454834
35,50.1550,2.60526323318481
36,50.1593,3.48765444755554
37,50.1691,8.40130138397217
38,50.1719,4.89090490341187
39,50.1784,17.8052310943604
40,50.1831,15.7129621505737
41,50.1873,12.4542484283447
42,50.1910,15.6656436920166
43,50.1967,6.17961263656616
44,50.2007,5.74801158905029
45,50.2067,11.0338268280029
46,50.2115,22.4744606018066
47,50.2176,6.06845760345459
48,50.2279,7.37414264678955
49,50.2322,14.6666736602783
50,50.2364,11.0354671478271
51,50.2398,2.79112434387207
52,50.2424,13.1463956832886
53,50.2457,18.7867431640625
54,50.2497,16.3893890380859
55,50.2550,16.7578392028809
56,50.2663,9.8486967086792
57,50.2692,17.9023189544678
58,50.2747,11.5682249069214
59,50.2784,9.85724544525146
60,50.2821,8.1663875579834
61,50.2876,7.44651556015015
62,50.2910,21.2636489868164
63,50.2957,6.93395376205444
64,50.3002,22.6460494995117
65,50.3053,18.1165962219238
66,50.3087,7.47377157211304
67,50.3117,5.20496892929077
68,50.3149,11.0098648071289
69,50.3218,20.8201942443848
70,50.3249,10.1235198974609
71,50.3282,8.5906810760498
72,50.3319,19.2189083099365
73,50.3376,7.23937368392944
74,50.3401,14.2323045730591
75,50.3465,10.7859869003296
76,50.3503,10.6883344650269
77,50.3578,10.184889793396
78,50.3605,3.28352165222168
79,50.3689,12.4635143280029
80,50.3751,11.7706489562988
81,50.3775,3.67923283576965
82,50.3840,4.84573459625244
83,50.3878,3.81850099563599
84,50.3904,13.5060520172119
85,50.3963,22.4025726318359
86,50.4025,20.7411270141602
87,50.4076,5.16474008560181
88,50.4106,3.28242421150208
89,50.4134,27.9996185302734
90,50.4161,5.25510025024414
91,50.4212,19.6629238128662
92,50.4241,5.77805233001709
93,50.4272,3.71394228935242
94,50.4304,25.1490306854248
95,50.4340,10.8328685760498
96,50.4391,35.9149894714355
97,50.4448,14.4198732376099
98,50.4495,7.69223880767822
99,50.4530,6.94078159332275
100,50.4552,7.44333028793335
101,50.4579,5.88931703567505
102,50.4618,12.1321849822998
103,50.4666,2.55628728866577
104,50.4699,2.63287019729614
105,50.4733,2.64806246757507
106,50.4828,10.4572505950928
107,50.4868,15.4872255325317
108,50.4916,6.74921274185181
109,50.4943,6.84617376327515
110,50.4990,12.2932147979736
111,50.5021,8.62722682952881
112,50.5072,17.7080821990967
113,50.5127,10.228967666626
114,50.5222,5.47978687286377
115,50.5258,9.34507465362549
116,50.5304,24.6711254119873
117,50.5349,4.25125789642334
118,50.5378,6.22239971160889
119,50.5416,13.2575054168701
120,50.5459,7.01597833633423
121,50.5483,10.2206830978394
122,50.5519,6.36288690567017
123,50.5549,6.42295980453491
124,50.5651,3.87087178230286
125,50.5693,13.7810840606689
126,50.5734,2.64245176315308
127,50.5777,14.9578351974487
128,50.5815,9.70257377624512
129,50.5862,17.5956745147705
130,50.5905,6.65194082260132
131,50.5954,6.28546953201294
132,50.6031,10.946813583374
133,50.6067,8.95356273651123
134,50.6100,5.32280969619751
135,50.6149,2.50926065444946
136,50.6188,6.2822790145874
137,50.6216,2.73005676269531
138,50.6247,24.9099617004395
139,50.6276,3.52973484992981
140,50.6329,26.1986293792725
141,50.6404,18.9126853942871
142,50.6447,10.0490474700928
143,50.6479,10.2379512786865
144,50.6532,2.75227785110474
145,50.6558,12.7029047012329
146,50.6584,9.67501831054688
147,50.6654,4.93884754180908
148,50.6683,21.088062286377
149,50.6758,15.8106937408447
150,50.6784,19.0753059387207
151,50.6830,19.1978874206543
152,50.6894,12.5373182296753
153,50.6925,15.759991645813
154,50.6956,2.68188905715942
155,50.6998,17.4972877502441
156,50.7047,15.4820737838745
157,50.7125,18.7950019836426
158,50.7153,5.58693599700928
159,50.7194,14.2645740509033
160,50.7229,8.65413093566895
161,50.7267,4.52973365783691
162,50.7298,4.25121116638184
163,50.7331,8.45531940460205
164,50.7375,12.7741193771362
165,50.7418,5.82016277313232
166,50.7473,12.6863269805908
167,50.7535,20.4409294128418
168,50.7572,5.95440912246704
169,50.7644,3.42671060562134
170,50.7689,11.0446615219116
171,50.7721,10.0145816802979
172,50.7767,3.33700037002563
173,50.7839,15.0342693328857
174,50.7899,13.4396457672119
175,50.7935,4.92546939849854
176,50.7970,10.1507053375244
177,50.8026,3.56450891494751
178,50.8063,12.545129776001
179,50.8102,8.46974182128906
180,50.8129,6.54064655303955
181,50.8192,18.8222618103027
182,50.8250,9.16000747680664
183,50.8307,7.48847055435181
184,50.8339,8.25978565216064
185,50.8386,11.5870876312256
186,50.8436,21.0712795257568
187,50.8467,3.71004176139832
188,50.8520,8.49939918518066
189,50.8593,13.9986419677734
190,50.8610,6.66944265365601
191,50.8667,9.66471004486084
192,50.8733,26.2801704406738
193,50.8797,4.35290575027466
194,50.8831,4.10398387908936
195,50.8874,4.85360097885132
196,50.8934,15.2530469894409
197,50.8965,17.6084022521973
198,50.9000,4.65357112884521
199,50.9031,12.6074085235596
200,50.9063,4.03991937637329
201,50.9098,27.3608093261719
202,50.9127,3.60062265396118
203,50.9157,8.89189720153809
204,50.9216,7.52442455291748
205,50.9268,23.4482727050781
206,50.9307,8.78015422821045
207,50.9350,2.60649037361145
208,50.9407,6.1283655166626
209,50.9450,19.9408760070801
210,50.9512,13.6198091506958
211,50.9572,8.21877384185791
212,50.9611,6.30940341949463
213,50.9740,7.47395849227905
214,50.9850,11.6917753219604
215,50.9883,3.3311448097229
216,50.9966,3.41395497322083
217,50.9997,11.2404127120972
218,51.0053,11.0729885101318
219,51.0103,6.1068058013916
220,51.0162,8.00997447967529
221,51.0227,11.2739686965942
222,51.0277,5.68478155136108
223,51.0333,6.83611440658569
224,51.0368,13.2269668579102
225,51.0434,4.69585847854614
226,51.0468,11.1452741622925
227,51.0505,9.29410552978516
228,51.0553,7.92252492904663
229,51.0588,4.13488388061523
230,51.0710,24.1914730072021
231,51.0748,5.27516651153564
232,51.0788,13.5407056808472
233,51.0835,7.34501171112061
234,51.0902,12.6280794143677
235,51.1018,4.6111159324646
236,51.1067,3.31878900527954
237,51.1105,13.8487272262573
238,51.1138,10.5762739181519
239,51.1171,18.9935035705566
240,51.1207,14.1197719573975
241,51.1247,4.12566566467285
242,51.1284,29.383544921875
243,51.1346,6.7322564125061
244,51.1372,6.10797357559204
245,51.1411,5.83796691894531
246,51.1462,6.39694213867188
247,51.1487,12.5137271881104
248,51.1534,8.60341548919678
249,51.1565,3.3609778881073
250,51.1604,21.3704586029053
251,51.1654,27.8795223236084
252,51.1690,4.74788093566895
253,51.1718,24.8515205383301
254,51.1768,10.9245357513428
255,51.1838,11.4235744476318
256,51.1875,3.78490495681763
257,51.1962,16.0797004699707
258,51.2001,6.65567922592163
259,51.2100,13.8626508712769
260,51.2145,7.39449691772461
261,51.2186,10.3000431060791
262,51.2238,11.9936265945435
263,51.2286,18.0655708312988
264,51.2320,16.5574150085449
265,51.2358,6.03407859802246
266,51.2398,3.42604184150696
267,51.2425,9.48367881774902
268,51.2478,4.89551830291748
269,51.2508,7.70851516723633
270,51.2572,3.07501316070557
271,51.2669,8.03086948394775
272,51.2694,13.9154539108276
273,51.2751,12.8444290161133
274,51.2798,2.5671021938324
275,51.2885,6.15355348587036
276,51.2922,5.99201440811157
277,51.2952,6.83171844482422
278,51.3023,12.0283975601196
279,51.3066,10.469518661499
280,51.3116,9.94034385681152
281,51.3159,5.05844831466675
282,51.3224,2.77858018875122
283,51.3287,10.9783983230591
284,51.3326,4.55012226104736
285,51.3376,16.3265686035156
286,51.3413,7.46227741241455
287,51.3439,11.8893871307373
288,51.3475,9.42775344848633
289,51.3533,2.92006587982178
290,51.3632,13.5900754928589
291,51.3675,16.4681091308594
292,51.3738,9.22294235229492
293,51.3758,4.60286331176758
294,51.3827,3.12006163597107
295,51.3894,12.023401260376
296,51.3956,3.05272245407104
297,51.3985,18.4521579742432
298,51.4044,6.37904644012451
299,51.4085,3.84152293205261
300,51.4125,5.65061283111572
301,51.4166,8.34649753570557
302,51.4214,11.9604644775391
303,51.4262,21.2983665466309
304,51.4305,6.78970956802368
305,51.4334,11.5200576782227
306,51.4378,2.73996567726135
307,51.4424,6.49944591522217
308,51.4509,3.46183061599731
309,51.4549,34.7763862609863
310,51.4592,9.60375499725342
311,51.4636,6.56595134735107
312,51.4667,14.7059535980225
313,51.4702,6.91833972930908
314,51.4731,3.88440823554993
315,51.4762,9.33853530883789
316,51.4806,3.70044755935669
317,51.4851,9.79060459136963
318,51.4891,8.66295337677002
319,51.4979,9.04027366638184
320,51.5048,6.87912750244141
321,51.5086,15.4143934249878
322,51.5131,7.64133930206299
323,51.5184,17.3103218078613
324,51.5230,16.2896003723145
325,51.5266,10.3989629745483
326,51.5315,4.75311708450317
327,51.5344,2.5302631855011
328,51.5384,3.51321029663086
329,51.5470,14.0503816604614
330,51.5525,10.9804096221924
331,51.5563,8.24069118499756
332,51.5618,17.3153190612793
333,51.5671,20.6988887786865
334,51.5734,14.171501159668
335,51.5760,5.79584121704102
336,51.5850,13.3574123382568
337,51.5901,17.2833099365234
338,51.5959,11.0336027145386
339,51.5997,12.0112886428833
340,51.6072,14.6091060638428
341,51.6115,14.3209257125854
342,51.6147,5.55222225189209
343,51.6218,20.829761505127
344,51.6296,13.5376205444336
345,51.6324,3.48353338241577
346,51.6359,3.64856386184692
347,51.6390,3.58242535591125
348,51.6423,4.37272357940674
349,51.6459,5.61440372467041
350,51.6494,15.9745664596558
351,51.6541,21.644567489624
352,51.6608,11.525260925293
353,51.6652,13.9983959197998
354,51.6693,11.4357051849365
355,51.6892,23.3414573669434
356,51.6969,18.9361000061035
357,51.7008,3.05116605758667
358,51.7035,6.40798807144165
359,51.7071,19.7121829986572
360,51.7148,8.26407337188721
361,51.7208,15.1610441207886
362,51.7265,12.7203121185303
363,51.7316,13.7508134841919
364,51.7372,13.2657489776611
365,51.7399,10.694299697876
366,51.7441,11.2749862670898
367,51.7507,12.8900012969971
368,51.7540,8.77553081512451
369,51.7570,10.0550632476807
370,51.7604,6.17192935943604
371,51.7640,13.3860168457031
372,51.7719,8.01836109161377
373,51.7753,3.43121480941772
374,51.7782,11.5352954864502
375,51.7829,8.49538326263428
376,51.7862,20.0425662994385
377,51.7906,5.76149272918701
378,51.8006,6.59250736236572
379,51.8065,10.2975358963013
380,51.8149,16.5250968933105
381,51.8188,3.49132680892944
382,51.8224,24.4440364837646
383,51.8257,2.91878724098206
384,51.8284,16.9726867675781
385,51.8325,23.625509262085
386,51.8385,9.16042613983154
387,51.8424,3.15495729446411
388,51.8466,8.58138465881348
389,51.8520,9.66296195983887
390,51.8552,6.61714267730713
391,51.8583,18.5866603851318
392,51.8626,7.03845977783203
393,51.8662,4.06650638580322
394,51.8693,2.99950337409973
395,51.8771,15.9569807052612
396,51.8853,14.8263425827026
397,51.8911,3.51736116409302
398,51.8942,3.94260549545288
399,51.9143,3.28313708305359
400,51.9245,12.4679746627808
401,51.9320,24.5655288696289
402,51.9380,4.33204174041748
403,51.9433,12.3114862442017
404,51.9475,5.21940326690674
405,51.9509,9.76303100585938
406,51.9536,15.1572570800781
407,51.9568,3.25475263595581
408,51.9602,5.13800239562988
409,51.9656,9.27699089050293
410,51.9712,10.4000339508057
411,51.9741,7.03006458282471
412,51.9804,9.16527080535889
413,51.9832,24.7021827697754
414,51.9885,17.5685119628906
415,51.9933,9.88364505767822
416,51.9971,7.44584369659424
417,52.0014,5.95942783355713
418,52.0044,2.60181760787964
419,52.0093,8.77405834197998
420,52.0176,14.9037981033325
421,52.0235,19.7639656066895
422,52.0288,16.2994270324707
423,52.0319,4.37465572357178
424,52.0364,20.960506439209
425,52.0416,18.6086540222168
426,52.0456,11.8993797302246
427,52.0506,13.0623931884766
428,52.0556,8.10664844512939
429,52.0645,7.83615779876709
430,52.0679,5.46266555786133
431,52.0746,13.8062763214111
432,52.0794,12.6891508102417
433,52.0869,27.6221675872803
434,52.0915,11.7254705429077
435,52.0965,7.89204168319702
436,52.1043,11.3657712936401
437,52.1135,16.5343208312988
438,52.1183,8.88647270202637
439,52.1237,2.66261148452759
440,52.1265,10.2946643829346
441,52.1366,9.78164196014404
442,52.1405,4.65127992630005
443,52.1467,5.12346410751343
444,52.1499,7.04179859161377
445,52.1526,18.674243927002
446,52.1608,20.5881996154785
447,52.1699,12.9927339553833
448,52.1737,10.3933839797974
449,52.1783,19.2872200012207
450,52.1847,12.1677474975586
451,52.1917,19.4369220733643
452,52.1952,9.1832103729248
453,52.1997,9.0525074005127
454,52.2083,14.0533695220947
455,52.2116,3.00612330436707
456,52.2184,4.94999980926514
457,52.2231,11.4590625762939
458,52.2284,19.6790943145752
459,52.2353,10.6994724273682
460,52.2398,9.4467601776123
461,52.2435,15.6377229690552
462,52.2499,15.828516960144
463,52.2536,11.8414869308472
464,52.2590,18.3590965270996
465,52.2649,2.977698802948
466,52.2775,16.2319202423096
467,52.2875,6.28748416900635
468,52.2914,7.06735849380493
469,52.2954,14.3665466308594
470,52.3039,9.35444641113281
471,52.3085,6.18474674224854
472,52.3140,11.1544780731201
473,52.3210,13.3825960159302
474,52.3251,14.6481733322144
475,52.3305,3.06188535690308
476,52.3355,16.6227016448975
477,52.3383,4.36848068237305
478,52.3418,11.8468351364136
479,52.3466,2.69371294975281
480,52.3512,11.6631679534912
481,52.3586,29.0010013580322
482,52.3648,11.0063171386719
483,52.3679,8.86428642272949
484,52.3736,12.6096572875977
485,52.3793,2.89031267166138
486,52.3852,3.4215030670166
487,52.3897,6.54876327514648
488,52.3938,13.7099742889404
489,52.3986,2.72510576248169
490,52.4039,19.8820858001709
491,52.4122,9.04559230804443
492,52.4164,26.8181800842285
493,52.4219,10.2245960235596
494,52.4252,7.69201517105103
495,52.4330,5.94780302047729
496,52.4400,11.0876359939575
497,52.4432,12.4104051589966
498,52.4466,18.556770324707
499,52.4511,13.6015348434448
500,52.4540,5.66412448883057
501,52.4600,10.1603364944458
502,52.4653,13.4953098297119
503,52.4727,8.97877311706543
504,52.4764,10.2034921646118
505,52.4810,7.04875659942627
506,52.4837,7.06292867660522
507,52.4897,7.75610256195068
508,52.4945,7.88600921630859
509,52.4981,3.69823026657104
510,52.5124,4.83061838150024
511,52.5177,14.0449962615967
512,52.5212,3.17578125
513,52.5250,14.8917951583862
514,52.5296,11.7139501571655
515,52.5346,3.11850214004517
516,52.5372,8.94524192810059
517,52.5413,7.61086893081665
518,52.5453,6.31464290618896
519,52.5484,15.7928009033203
520,52.5532,3.20255327224731
521,52.5571,8.10626697540283
522,52.5607,8.08161735534668
523,52.5690,9.30238914489746
524,52.5735,6.50727224349976
525,52.5782,5.04566335678101
526,52.5853,9.46947002410889
527,52.5909,4.83946418762207
528,52.5948,5.45359373092651
529,52.5984,10.268666267395
530,52.6029,11.919825553894
531,52.6080,7.13766479492188
532,52.6109,2.65473127365112
533,52.6146,10.1006183624268
534,52.6190,3.10355114936829
535,52.6242,4.83399391174316
536,52.6272,7.4527907371521
537,52.6316,15.2662076950073
538,52.6376,12.1858310699463
539,52.6447,5.85953330993652
540,52.6471,3.01022720336914
541,52.6511,11.7354955673218
542,52.6566,13.286979675293
543,52.6596,3.40973544120789
544,52.6631,16.4982109069824
545,52.6694,14.6259441375732
546,52.6733,18.2575588226318
547,52.6814,12.3487825393677
548,52.6909,8.59368324279785
549,52.6941,3.22605586051941
550,52.6976,7.81617498397827
551,52.7007,11.0904569625854
552,52.7080,7.76768970489502
553,52.7119,15.3030519485474
554,52.7192,11.4983415603638
555,52.7236,28.3581142425537
556,52.7275,5.38737010955811
557,52.7323,9.7768497467041
558,52.7370,4.6620512008667
559,52.7430,22.8719062805176
560,52.7463,4.54700422286987
561,52.7514,20.5052528381348
562,52.7564,3.2460880279541
563,52.7606,12.3383388519287
564,52.7693,10.7141065597534
565,52.7742,10.9273929595947
566,52.7797,18.9240703582764
567,52.7846,4.66880226135254
568,52.7884,14.7278318405151
569,52.7930,3.4629807472229
570,52.8009,9.52584648132324
571,52.8051,3.39254117012024
572,52.8094,15.7611036300659
573,52.8148,8.37535190582275
574,52.8184,4.96701383590698
575,52.8214,14.9504871368408
576,52.8312,15.6464262008667
577,52.8402,7.77531433105469
578,52.8437,5.10559701919556
579,52.8476,14.6848297119141
580,52.8513,6.28287506103516
581,52.8537,9.3264102935791
582,52.8592,12.3150939941406
583,52.8656,6.46218395233154
584,52.8705,11.2258319854736
585,52.8768,17.6077461242676
586,52.8807,3.07946801185608
587,52.8842,6.93053340911865
588,52.8886,3.21841859817505
589,52.8920,6.34471416473389
590,52.9006,23.3471412658691
591,52.9058,14.5923862457275
592,52.9089,2.54952454566956
593,52.9136,10.1500453948975
594,52.9185,18.9877758026123
595,52.9273,15.0021667480469
596,52.9321,3.96016454696655
597,52.9394,8.49044799804688
598,52.9430,14.9234752655029
599,52.9473,9.64290809631348
600,52.9506,7.88079071044922
601,52.9566,10.3460569381714
602,52.9606,4.18800258636475
603,52.9646,21.9804191589355
604,52.9716,9.53182983398438
605,52.9751,13.34130859375
606,52.9793,2.79941725730896
607,52.9827,2.78983759880066
608,52.9870,13.2526350021362
609,52.9992,9.00341033935547
610,53.0070,21.3613033294678
611,53.0109,7.32483148574829
612,53.0156,19.3353004455566
613,53.0193,3.05004954338074
614,53.0247,14.7006025314331
615,53.0319,11.6179733276367
616,53.0359,3.62500810623169
617,53.0405,17.2817573547363
618,53.0438,3.97012209892273
619,53.0482,20.9617214202881
620,53.0603,17.533561706543
621,53.0693,2.80700445175171
622,53.0725,3.21281766891479
623,53.0750,10.2039241790771
624,53.0796,17.564640045166
625,53.0846,2.59152269363403
626,53.0902,11.2926616668701
627,53.0934,12.7387685775757
628,53.1066,16.885103225708
629,53.1115,6.79678201675415
630,53.1151,11.4100360870361
631,53.1187,18.1755561828613
632,53.1237,10.6509284973145
633,53.1322,8.54354095458984
634,53.1385,11.9921321868896
635,53.1434,12.4514694213867
636,53.1471,15.1198139190674
637,53.1568,7.72906494140625
638,53.1706,11.5993556976318
639,53.1742,2.57381868362427
640,53.1792,5.96257877349854
641,53.1858,6.9854416847229
642,53.1883,4.245285987854
643,53.1922,9.2015209197998
644,53.1966,17.3995971679688
645,53.2002,8.3856372833252
646,53.2032,10.8162641525269
647,53.2093,11.515323638916
648,53.2157,11.4092092514038
649,53.2197,5.74938440322876
650,53.2239,12.2530117034912
651,53.2274,2.75034284591675
652,53.2352,7.05170583724976
653,53.2396,12.5902032852173
654,53.2429,6.66389083862305
655,53.2464,13.4668350219727
656,53.2523,10.6095409393311
657,53.2562,7.06499195098877
658,53.2627,17.7118034362793
659,53.2740,21.3596725463867
660,53.2781,10.6529321670532
661,53.2823,2.68244051933289
662,53.2862,5.10380887985229
663,53.2931,21.7676544189453
664,53.2983,29.6949806213379
665,53.3035,28.5446319580078
666,53.3085,17.3481388092041
667,53.3137,6.0566349029541
668,53.3225,5.83308839797974
