#"-ESI Scan (rt: 0.055-1.018 min, 80 scans) Frag=175.0V 7.d "
#Point,X(Thompsons),Y(Counts)
0,50.0033,7.72289657592773
1,50.0093,3.07602787017822
2,50.0124,4.75963878631592
3,50.0178,5.48094272613525
4,50.0270,11.4003553390503
5,50.0295,18.2467498779297
6,50.0364,8.3648042678833
7,50.0409,6.46505737304688
8,50.0461,3.12527775764465
9,50.0489,9.51636791229248
10,50.0530,3.57685995101929
11,50.0571,10.1240949630737
12,50.0602,3.47531628608704
13,50.0663,23.0252819061279
14,50.0718,7.67638683319092
15,50.0755,10.1424160003662
16,50.0782,13.7334690093994
17,50.0846,7.99165487289429
18,50.0889,10.461124420166
19,50.0985,14.1342067718506
20,50.1056,8.30233573913574
21,50.1082,5.24785614013672
22,50.1141,7.06299877166748
23,50.1178,6.86560916900635
24,50.1223,2.98866605758667
25,50.1260,3.41757345199585
26,50.1310,5.68576669692993
27,50.1365,11.7922716140747
28,50.1447,11.8672122955322
29,50.1520,5.26332712173462
30,50.1577,9.73319530487061
31,50.1718,3.45204305648804
32,50.1757,12.9610719680786
33,50.1807,2.57226896286011
34,50.1856,10.893651008606
35,50.1901,14.6637058258057
36,50.1941,4.16587829589844
37,50.1977,8.18744564056396
38,50.2019,8.88871288299561
39,50.2051,17.5223331451416
40,50.2091,5.72853851318359
41,50.2165,3.04131937026978
42,50.2201,6.94145584106445
43,50.2243,4.83054971694946
44,50.2273,16.6432151794434
45,50.2342,20.7566719055176
46,50.2379,7.79174900054932
47,50.2411,3.29939031600952
48,50.2555,5.60117769241333
49,50.2595,5.69553232192993
50,50.2713,10.235631942749
51,50.2766,5.64264249801636
52,50.2810,5.37325572967529
53,50.2860,3.61588907241821
54,50.2894,3.92755317687988
55,50.2931,13.587254524231
56,50.2963,3.5821418762207
57,50.3023,3.47899317741394
58,50.3051,3.26850080490112
59,50.3085,14.304594039917
60,50.3157,6.34725713729858
61,50.3241,8.23225879669189
62,50.3270,23.8261299133301
63,50.3306,14.2329893112183
64,50.3348,3.55272483825684
65,50.3399,23.3862609863281
66,50.3470,6.5798978805542
67,50.3503,13.720326423645
68,50.3573,8.88122081756592
69,50.3627,9.02415180206299
70,50.3685,2.75209760665894
71,50.3745,11.708438873291
72,50.3789,15.9521503448486
73,50.3848,7.76058673858643
74,50.3969,13.7333736419678
75,50.4010,8.73991107940674
76,50.4068,17.224796295166
77,50.4130,11.4329690933228
78,50.4171,3.60227274894714
79,50.4218,5.66488647460938
80,50.4275,3.4558002948761
81,50.4307,3.60004472732544
82,50.4348,4.1090145111084
83,50.4455,3.15195322036743
84,50.4497,4.94445753097534
85,50.4533,5.24206113815308
86,50.4610,11.2982301712036
87,50.4667,2.63541650772095
88,50.4699,8.68377113342285
89,50.4747,3.41427373886108
90,50.4788,6.97778940200806
91,50.4896,12.1078681945801
92,50.4973,8.40130233764648
93,50.5008,2.6253650188446
94,50.5060,17.6578636169434
95,50.5099,14.2914428710938
96,50.5136,7.01651000976563
97,50.5179,4.344322681427
98,50.5267,3.23125004768372
99,50.5300,3.31975746154785
100,50.5331,4.93775653839111
101,50.5371,8.22866058349609
102,50.5428,14.181188583374
103,50.5462,10.9343681335449
104,50.5503,14.9227046966553
105,50.5570,2.77145338058472
106,50.5604,5.62148714065552
107,50.5660,9.55196475982666
108,50.5771,14.8939762115479
109,50.5796,4.46712970733643
110,50.5835,4.5567307472229
111,50.5862,3.20118379592896
112,50.5894,12.866979598999
113,50.5937,6.48569202423096
114,50.5973,2.69369101524353
115,50.6081,3.4260082244873
116,50.6122,8.75085639953613
117,50.6169,3.05317449569702
118,50.6199,10.5232744216919
119,50.6241,5.07582235336304
120,50.6317,5.55045938491821
121,50.6445,11.545654296875
122,50.6500,6.56942129135132
123,50.6651,2.8998715877533
124,50.6683,6.16255903244019
125,50.6780,9.76249980926514
126,50.6830,2.90901160240173
127,50.6865,15.5340557098389
128,50.6953,4.13276624679565
129,50.6997,8.78980827331543
130,50.7063,8.12789916992188
131,50.7127,6.05482625961304
132,50.7165,3.90390634536743
133,50.7198,7.89429616928101
134,50.7251,12.6460800170898
135,50.7308,5.86287879943848
136,50.7408,9.01285934448242
137,50.7449,11.5700807571411
138,50.7495,14.6330471038818
139,50.7550,2.51406240463257
140,50.7590,2.89531254768372
141,50.7652,13.0401401519775
142,50.7686,15.8894824981689
143,50.7723,16.4979972839355
144,50.7747,12.337498664856
145,50.7810,13.8591175079346
146,50.7838,4.05493831634521
147,50.7877,12.5909223556519
148,50.7943,10.5538358688354
149,50.8014,7.64524078369141
150,50.8110,10.2834978103638
151,50.8148,3.01236009597778
152,50.8190,14.1915874481201
153,50.8231,3.55996084213257
154,50.8291,5.52073431015015
155,50.8324,8.65354347229004
156,50.8356,2.97608160972595
157,50.8406,13.7618007659912
158,50.8466,8.4271183013916
159,50.8503,12.4354076385498
160,50.8549,8.11002540588379
161,50.8587,16.1641159057617
162,50.8614,16.9964065551758
163,50.8658,8.5468921661377
164,50.8693,8.23200416564941
165,50.8769,5.5240740776062
166,50.8814,19.8699913024902
167,50.8886,10.2305173873901
168,50.9018,16.3373832702637
169,50.9097,4.78390264511108
170,50.9148,9.25333213806152
171,50.9202,18.4723968505859
172,50.9245,17.5288372039795
173,50.9304,8.85262107849121
174,50.9335,5.47931814193726
175,50.9398,2.56361103057861
176,50.9430,3.06229257583618
177,50.9470,17.3244667053223
178,50.9557,5.16212701797485
179,50.9590,3.20930290222168
180,50.9630,8.69485092163086
181,50.9667,11.6831865310669
182,50.9788,5.70507097244263
183,50.9827,3.07366323471069
184,50.9872,11.3112545013428
185,50.9901,2.93426179885864
186,50.9936,8.03604984283447
187,50.9982,4.00850009918213
188,51.0014,6.24294853210449
189,51.0069,11.9161014556885
190,51.0101,2.7265625
191,51.0176,9.72707080841064
192,51.0238,28.4055023193359
193,51.0270,16.1628360748291
194,51.0304,11.1342639923096
195,51.0335,2.94209551811218
196,51.0364,6.32946872711182
197,51.0399,9.97051620483398
198,51.0436,5.61287975311279
199,51.0520,15.7730226516724
200,51.0563,6.81475448608398
201,51.0593,11.1011600494385
202,51.0648,14.9421405792236
203,51.0742,13.4233951568604
204,51.0821,9.04343318939209
205,51.0861,6.16521692276001
206,51.0917,14.4832735061646
207,51.0972,19.5794086456299
208,51.1064,4.67803287506104
209,51.1173,8.10115337371826
210,51.1237,7.88679218292236
211,51.1261,7.88453197479248
212,51.1303,8.45323944091797
213,51.1342,3.40817499160767
214,51.1397,10.7692079544067
215,51.1438,17.3230571746826
216,51.1498,2.9630434513092
217,51.1547,10.80690574646
218,51.1670,8.23490905761719
219,51.1713,6.15744113922119
220,51.1786,10.0553188323975
221,51.1827,3.11251497268677
222,51.1886,6.40465545654297
223,51.1916,20.6914939880371
224,51.1960,6.94082546234131
225,51.1989,6.51738595962524
226,51.2033,12.853627204895
227,51.2103,13.7107057571411
228,51.2147,7.56516265869141
229,51.2183,15.7188014984131
230,51.2226,10.6050310134888
231,51.2271,3.00310897827148
232,51.2349,17.9631214141846
233,51.2400,9.4506778717041
234,51.2453,13.324444770813
235,51.2493,9.60074424743652
236,51.2538,10.2753200531006
237,51.2594,6.33396148681641
238,51.2638,5.2258415222168
239,51.2711,12.813850402832
240,51.2739,2.97500824928284
241,51.2798,8.71305847167969
242,51.2867,8.18087482452393
243,51.2897,3.49153590202332
244,51.2960,7.34554147720337
245,51.2998,17.1820507049561
246,51.3029,7.11770343780518
247,51.3092,8.61398315429688
248,51.3145,10.6397714614868
249,51.3189,3.55342984199524
250,51.3237,6.21634101867676
251,51.3327,2.87245059013367
252,51.3369,7.65375661849976
253,51.3456,10.7538366317749
254,51.3510,13.1535215377808
255,51.3584,6.25281238555908
256,51.3648,15.7080564498901
257,51.3702,4.89080667495728
258,51.3732,7.10840749740601
259,51.3783,8.60054588317871
260,51.3820,3.31843757629395
261,51.3849,22.3560104370117
262,51.3907,9.49521636962891
263,51.4010,8.86728668212891
264,51.4070,10.9532995223999
265,51.4152,8.2933349609375
266,51.4335,13.4042663574219
267,51.4404,6.17228603363037
268,51.4474,3.33753323554993
269,51.4575,13.3286924362183
270,51.4641,3.37639427185059
271,51.4714,15.006067276001
272,51.4793,4.81388998031616
273,51.4851,2.66113638877869
274,51.4903,11.2147216796875
275,51.4981,9.58959007263184
276,51.5021,7.18055868148804
277,51.5076,4.8043475151062
278,51.5102,10.1332731246948
279,51.5132,2.94775557518005
280,51.5161,9.0675106048584
281,51.5197,7.82618856430054
282,51.5241,9.08769130706787
283,51.5303,5.68252468109131
284,51.5342,2.82207202911377
285,51.5382,24.5270366668701
286,51.5454,4.2021164894104
287,51.5529,3.45416688919067
288,51.5590,11.7697706222534
289,51.5679,3.95246696472168
290,51.5716,17.6343746185303
291,51.5821,8.82960796356201
292,51.5853,5.16982412338257
293,51.5899,25.0963153839111
294,51.5953,6.31900453567505
295,51.6003,17.8063774108887
296,51.6066,20.015100479126
297,51.6106,2.73272728919983
298,51.6238,9.85397624969482
299,51.6278,8.41114521026611
300,51.6353,2.7990026473999
301,51.6394,14.0613813400269
302,51.6444,10.5235195159912
303,51.6477,3.15450000762939
304,51.6515,15.2118835449219
305,51.6579,16.0700740814209
306,51.6636,18.5292930603027
307,51.6678,12.2298889160156
308,51.6726,8.96497344970703
309,51.6824,11.8015909194946
310,51.6860,3.81913375854492
311,51.6916,9.86017894744873
312,51.6992,11.2702178955078
313,51.7088,12.6696872711182
314,51.7188,3.27906560897827
315,51.7232,11.4861812591553
316,51.7285,3.52501225471497
317,51.7406,3.704838514328
318,51.7474,10.4493646621704
319,51.7555,10.3906288146973
320,51.7581,5.96967172622681
321,51.7648,3.44067454338074
322,51.7686,8.52493095397949
323,51.7748,4.50734233856201
324,51.7818,6.55260467529297
325,51.7938,12.9366579055786
326,51.8021,6.81748485565186
327,51.8070,13.7170696258545
328,51.8109,9.5783748626709
329,51.8158,8.01290321350098
330,51.8205,14.0669069290161
331,51.8255,9.03578186035156
332,51.8336,15.9969482421875
333,51.8454,4.12469291687012
334,51.8525,3.15065789222717
335,51.8601,8.5365161895752
336,51.8668,3.17219829559326
337,51.8710,10.1033382415771
338,51.8800,8.05990695953369
339,51.8833,9.64541053771973
340,51.8866,6.52921056747437
341,51.8911,5.51450872421265
342,51.8960,11.4728679656982
343,51.8992,5.96448040008545
344,51.9072,5.13791942596436
345,51.9101,6.11304950714111
346,51.9149,6.09456777572632
347,51.9220,5.45535707473755
348,51.9264,22.2373161315918
349,51.9305,2.89341902732849
350,51.9370,5.30773448944092
351,51.9432,7.96949768066406
352,51.9462,5.9801197052002
353,51.9550,4.94703483581543
354,51.9587,13.5879306793213
355,51.9628,8.96862030029297
356,51.9744,10.1755266189575
357,51.9769,2.71254873275757
358,51.9805,3.27584147453308
359,51.9836,14.8709897994995
360,51.9894,26.0906772613525
361,51.9943,8.50492191314697
362,52.0019,9.10683059692383
363,52.0054,7.47143030166626
364,52.0084,9.14995861053467
365,52.0169,6.73410034179688
366,52.0202,22.6280574798584
367,52.0236,20.0412940979004
368,52.0291,9.65232372283936
369,52.0356,8.70253372192383
370,52.0426,24.9539527893066
371,52.0495,12.3768062591553
372,52.0573,6.31509017944336
373,52.0640,7.97703552246094
374,52.0668,3.46413612365723
375,52.0697,5.8153190612793
376,52.0779,15.9471588134766
377,52.0843,3.55326080322266
378,52.0887,4.28334665298462
379,52.0925,5.29234981536865
380,52.0980,7.7613730430603
381,52.1060,8.45487213134766
382,52.1088,4.96328735351563
383,52.1171,6.22901153564453
384,52.1198,8.24418163299561
385,52.1222,3.21306729316711
386,52.1262,15.2126588821411
387,52.1327,7.98676538467407
388,52.1395,9.52342414855957
389,52.1433,3.85420680046082
390,52.1573,5.99065065383911
391,52.1601,3.20367121696472
392,52.1687,5.99924755096436
393,52.1762,6.06163787841797
394,52.1815,10.8117980957031
395,52.1869,10.9798250198364
396,52.1914,19.0615921020508
397,52.1951,6.8753023147583
398,52.1979,11.4293355941772
399,52.2019,2.66813373565674
400,52.2151,4.94217252731323
401,52.2231,13.9996433258057
402,52.2267,9.06565189361572
403,52.2308,4.87504053115845
404,52.2343,7.57837677001953
405,52.2394,12.7441434860229
406,52.2448,9.39307403564453
407,52.2492,9.17741775512695
408,52.2518,8.3044490814209
409,52.2584,3.10898780822754
410,52.2626,13.9861497879028
411,52.2684,10.7223196029663
412,52.2783,13.7407941818237
413,52.2838,8.81603240966797
414,52.2884,5.57932758331299
415,52.2960,12.4268264770508
416,52.2994,7.3164496421814
417,52.3057,13.9812412261963
418,52.3093,16.4568176269531
419,52.3138,6.06663990020752
420,52.3185,15.085711479187
421,52.3271,8.95829677581787
422,52.3338,3.70527768135071
423,52.3367,3.44468355178833
424,52.3440,3.50003480911255
425,52.3487,13.6559162139893
426,52.3521,12.164831161499
427,52.3554,2.69465255737305
428,52.3628,9.93906593322754
429,52.3679,5.90836334228516
430,52.3711,10.6829586029053
431,52.3768,10.7768936157227
432,52.3827,10.0238456726074
433,52.3922,27.3509578704834
434,52.3960,2.75125002861023
435,52.4016,15.9150724411011
436,52.4086,13.7596664428711
437,52.4159,3.03453326225281
438,52.4206,22.8302536010742
439,52.4287,4.9990930557251
440,52.4328,2.6535918712616
441,52.4410,15.9605560302734
442,52.4485,5.23815822601318
443,52.4573,10.9768524169922
444,52.4618,8.12704467773438
445,52.4672,4.72334718704224
446,52.4702,5.88879680633545
447,52.4762,12.2511005401611
448,52.4861,6.06023788452148
449,52.4940,14.4555540084839
450,52.4994,7.78857326507568
451,52.5069,8.95953369140625
452,52.5131,8.79037761688232
453,52.5161,4.84351491928101
454,52.5211,2.93394899368286
455,52.5315,6.41575765609741
456,52.5344,5.85878372192383
457,52.5373,9.11397838592529
458,52.5421,3.45712018013
459,52.5455,5.98062515258789
460,52.5488,3.09028005599976
461,52.5526,3.22714686393738
462,52.5585,15.6133623123169
463,52.5630,8.58656215667725
464,52.5672,4.81016874313354
465,52.5713,18.8023777008057
466,52.5750,13.0490159988403
467,52.5791,5.94673728942871
468,52.5959,8.3014554977417
469,52.6016,17.9380416870117
470,52.6099,30.6949214935303
471,52.6210,9.06394958496094
472,52.6319,3.30600666999817
473,52.6351,4.65089321136475
474,52.6391,3.07426595687866
475,52.6440,2.70283937454224
476,52.6475,15.0253353118896
477,52.6504,6.10621929168701
478,52.6553,13.0461864471436
479,52.6635,5.66038227081299
480,52.6731,3.18437504768372
481,52.6773,10.6752796173096
482,52.6806,8.6836519241333
483,52.6865,8.03527069091797
484,52.6928,2.82700324058533
485,52.6976,2.80969834327698
486,52.7039,16.9966239929199
487,52.7083,10.2817029953003
488,52.7128,5.1581654548645
489,52.7159,9.94401073455811
490,52.7195,6.83097457885742
491,52.7220,13.1527585983276
492,52.7270,3.03944706916809
493,52.7315,11.4244985580444
494,52.7352,2.65668749809265
495,52.7386,12.8991756439209
496,52.7451,3.55139422416687
497,52.7528,8.06908702850342
498,52.7564,9.23831748962402
499,52.7615,15.3194246292114
500,52.7657,6.89890289306641
501,52.7713,21.6710357666016
502,52.7741,8.36361598968506
503,52.7785,2.8782217502594
504,52.7826,23.4275341033936
505,52.7930,19.1731071472168
506,52.8024,3.27930569648743
507,52.8062,9.99967956542969
508,52.8119,9.50784111022949
509,52.8180,18.6688575744629
510,52.8260,23.7245502471924
511,52.8315,5.45211219787598
512,52.8370,8.81027603149414
513,52.8524,3.55514717102051
514,52.8599,6.20663499832153
515,52.8713,13.7360076904297
516,52.8812,8.62692165374756
517,52.8853,2.97499990463257
518,52.8892,10.3353977203369
519,52.8926,4.67935752868652
520,52.8984,13.1924991607666
521,52.9062,13.4197416305542
522,52.9099,6.90135097503662
523,52.9180,17.1342639923096
524,52.9222,3.2857346534729
525,52.9260,4.66200017929077
526,52.9310,23.6422367095947
527,52.9380,2.97128534317017
528,52.9454,16.1406211853027
529,52.9488,5.76871347427368
530,52.9585,9.92193508148193
531,52.9636,22.009033203125
532,52.9754,8.60442066192627
533,52.9785,8.48059844970703
534,52.9871,13.7107515335083
535,52.9979,11.2006931304932
536,53.0030,7.42618846893311
537,53.0082,14.1858396530151
538,53.0137,8.16059494018555
539,53.0214,9.06288146972656
540,53.0261,11.8234729766846
541,53.0347,4.81225967407227
542,53.0384,4.44524812698364
543,53.0414,3.04721093177795
544,53.0458,2.88352131843567
545,53.0538,2.66814517974854
546,53.0600,3.47849774360657
547,53.0682,3.48236012458801
548,53.0718,2.75857472419739
549,53.0746,18.4466133117676
550,53.0789,7.30309915542603
551,53.0830,10.1869125366211
552,53.0875,8.08818912506104
553,53.0927,9.75074768066406
554,53.0990,3.68555331230164
555,53.1027,13.9242343902588
556,53.1055,6.84825372695923
557,53.1099,25.9375419616699
558,53.1137,2.83751440048218
559,53.1203,13.6040554046631
560,53.1271,6.67360591888428
561,53.1414,6.5635290145874
562,53.1485,6.09935283660889
563,53.1551,7.13133382797241
564,53.1598,12.5995502471924
565,53.1672,7.2655611038208
566,53.1729,7.30224704742432
567,53.1766,14.1118574142456
568,53.1828,9.90178680419922
569,53.1962,12.2382354736328
570,53.2025,10.11070728302
571,53.2116,7.25382709503174
572,53.2175,5.77193927764893
573,53.2240,9.99377632141113
574,53.2311,22.4826545715332
575,53.2372,4.29690742492676
576,53.2394,6.13881349563599
577,53.2441,5.81316232681274
578,53.2528,7.42127227783203
579,53.2576,6.35793972015381
580,53.2645,8.39489650726318
581,53.2741,10.2650957107544
582,53.2772,10.70849609375
583,53.2806,10.9341888427734
584,53.2950,5.46291542053223
585,53.3000,4.19694375991821
586,53.3033,5.06211376190186
587,53.3120,4.12146282196045
588,53.3152,13.2299365997314
589,53.3180,17.0018444061279
590,53.3225,10.8592214584351
591,53.3258,2.85330891609192
592,53.3285,12.5383558273315
593,53.3316,11.68798828125
594,53.3376,13.0574569702148
595,53.3441,8.6892032623291
596,53.3487,3.02256655693054
597,53.3530,12.8639621734619
598,53.3581,5.536696434021
599,53.3641,12.6627559661865
600,53.3694,10.4739112854004
601,53.3777,11.1182308197021
602,53.3834,8.64822578430176
603,53.3867,8.60037517547607
604,53.3918,8.74773979187012
605,53.3974,10.1303901672363
606,53.4014,7.94079685211182
607,53.4091,8.56086349487305
608,53.4135,8.08517265319824
609,53.4163,5.39720487594604
610,53.4207,2.63050270080566
611,53.4276,2.74694013595581
612,53.4342,5.74071931838989
613,53.4477,20.0395259857178
614,53.4553,15.6248340606689
615,53.4604,13.3002243041992
616,53.4661,10.3201503753662
617,53.4747,6.38417911529541
618,53.4786,5.86162424087524
619,53.4852,2.9982225894928
620,53.5057,6.48179006576538
621,53.5121,10.3508405685425
622,53.5183,11.5675401687622
623,53.5245,23.3402767181396
624,53.5344,8.06087779998779
625,53.5380,5.03959941864014
626,53.5436,23.1008338928223
627,53.5499,10.3154096603394
628,53.5570,6.52647399902344
629,53.5631,8.89261627197266
630,53.5686,2.90103316307068
631,53.5739,6.42987060546875
632,53.5817,11.7253084182739
633,53.5941,5.89744520187378
634,53.5996,9.45886325836182
635,53.6042,12.0858135223389
636,53.6127,7.76061391830444
637,53.6220,10.5013618469238
638,53.6262,4.43353652954102
639,53.6484,3.61548566818237
640,53.6552,4.84900569915771
641,53.6607,5.33087825775146
642,53.6654,8.15579700469971
643,53.6730,8.16299438476563
644,53.6771,3.85567164421082
645,53.6803,8.96540260314941
646,53.6856,5.7102837562561
647,53.6889,4.76906251907349
648,53.6917,4.75725841522217
649,53.6983,17.1283054351807
650,53.7039,18.7628211975098
651,53.7157,15.3338575363159
652,53.7206,3.73678159713745
653,53.7320,8.54903697967529
654,53.7397,8.44793701171875
655,53.7510,8.74798107147217
656,53.7563,30.0147342681885
657,53.7621,23.190486907959
658,53.7657,6.47913837432861
659,53.7761,12.0390062332153
660,53.7823,5.8791389465332
661,53.7848,14.3344268798828
662,53.7897,12.2866182327271
663,53.7946,15.7356014251709
664,53.8023,10.7022457122803
665,53.8064,6.1635046005249
666,53.8114,2.77505040168762
667,53.8272,21.0300712585449
668,53.8329,10.9908332824707
669,53.8387,14.2634792327881
