#"-ESI Scan (rt: 0.057-1.019 min, 80 scans) Frag=175.0V wash20B.d "
#Point,X(Thompsons),Y(Counts)
0,50.0028,16.4495544433594
1,50.0066,14.511700630188
2,50.0101,9.85532379150391
3,50.0131,9.95210552215576
4,50.0180,5.13383054733276
5,50.0215,4.91937923431396
6,50.0244,4.65682888031006
7,50.0284,13.2788410186768
8,50.0426,23.1328468322754
9,50.0472,3.19226098060608
10,50.0500,24.6875
11,50.0537,28.605899810791
12,50.0577,7.62585830688477
13,50.0610,15.2184371948242
14,50.0682,24.5764198303223
15,50.0725,23.6976928710938
16,50.0765,18.1720390319824
17,50.0823,12.7514009475708
18,50.0863,21.4203395843506
19,50.0900,9.33006858825684
20,50.0951,9.46624755859375
21,50.0982,24.0192756652832
22,50.1011,4.10178565979004
23,50.1039,13.5996246337891
24,50.1101,8.4980297088623
25,50.1162,13.3194932937622
26,50.1193,9.76026344299316
27,50.1263,13.1632022857666
28,50.1343,26.1219387054443
29,50.1394,8.78263092041016
30,50.1420,12.5751304626465
31,50.1471,22.3656578063965
32,50.1496,10.0327863693237
33,50.1541,3.92005014419556
34,50.1580,26.7624912261963
35,50.1627,20.6739559173584
36,50.1691,9.9666576385498
37,50.1727,5.01146793365479
38,50.1754,8.0879487991333
39,50.1806,23.4320468902588
40,50.1847,23.7249183654785
41,50.1885,13.2660112380981
42,50.1926,32.5451431274414
43,50.1993,5.2582950592041
44,50.2042,19.460391998291
45,50.2131,33.024959564209
46,50.2170,10.6512670516968
47,50.2212,3.94771957397461
48,50.2262,4.90003633499146
49,50.2320,25.3476219177246
50,50.2368,13.8435649871826
51,50.2423,9.23324871063232
52,50.2470,26.092113494873
53,50.2542,10.0212306976318
54,50.2591,14.2230739593506
55,50.2658,20.7977333068848
56,50.2713,4.69491529464722
57,50.2741,21.5005912780762
58,50.2777,4.66900014877319
59,50.2814,8.83857536315918
60,50.2882,61.5686645507813
61,50.2935,13.2971134185791
62,50.2978,4.84923696517944
63,50.3008,14.4059448242188
64,50.3051,12.9664707183838
65,50.3103,24.7625579833984
66,50.3134,13.0879516601563
67,50.3178,15.3911390304565
68,50.3220,19.7813243865967
69,50.3246,11.3527193069458
70,50.3285,10.7021923065186
71,50.3315,18.8038539886475
72,50.3361,20.5720520019531
73,50.3401,10.5279893875122
74,50.3430,12.0816707611084
75,50.3489,4.75022315979004
76,50.3535,25.5990142822266
77,50.3671,4.53427839279175
78,50.3706,4.77906656265259
79,50.3785,4.59223651885986
80,50.3825,8.52739524841309
81,50.3900,14.9920654296875
82,50.3935,10.7856874465942
83,50.3993,24.7943992614746
84,50.4051,16.691722869873
85,50.4087,18.4182472229004
86,50.4132,23.4663238525391
87,50.4184,20.5062599182129
88,50.4263,8.75833320617676
89,50.4301,22.3920192718506
90,50.4354,19.530029296875
91,50.4410,19.4012470245361
92,50.4468,42.6874008178711
93,50.4509,14.2408399581909
94,50.4539,9.76033401489258
95,50.4578,15.6711959838867
96,50.4604,14.3336334228516
97,50.4631,20.6940727233887
98,50.4676,35.1360511779785
99,50.4791,35.8753509521484
100,50.4892,28.888219833374
101,50.4933,18.3853034973145
102,50.4972,12.1104679107666
103,50.5001,19.4789848327637
104,50.5044,9.73439598083496
105,50.5079,34.8816032409668
106,50.5126,10.1544170379639
107,50.5164,14.8604831695557
108,50.5197,5.80493116378784
109,50.5250,33.0495262145996
110,50.5304,23.9176826477051
111,50.5356,13.553503036499
112,50.5387,25.2417392730713
113,50.5430,29.16575050354
114,50.5506,22.1331329345703
115,50.5550,14.1438016891479
116,50.5612,17.4995403289795
117,50.5649,21.4172859191895
118,50.5677,4.58824348449707
119,50.5705,11.563175201416
120,50.5751,4.22512149810791
121,50.5786,6.11305522918701
122,50.5858,11.0448970794678
123,50.5890,11.7831172943115
124,50.5921,19.457727432251
125,50.5954,4.83782291412354
126,50.5983,14.5807008743286
127,50.6035,24.8120212554932
128,50.6083,19.2568912506104
129,50.6175,9.13182830810547
130,50.6222,19.0754566192627
131,50.6260,4.91712331771851
132,50.6294,9.37558937072754
133,50.6331,15.569091796875
134,50.6370,8.60885143280029
135,50.6401,14.5842819213867
136,50.6445,15.3086452484131
137,50.6500,5.16428136825562
138,50.6535,10.0434589385986
139,50.6574,4.13862609863281
140,50.6614,10.7310981750488
141,50.6667,13.5664472579956
142,50.6701,14.2240295410156
143,50.6747,4.8765025138855
144,50.6794,4.66718769073486
145,50.6837,4.75746870040894
146,50.6881,19.44140625
147,50.6919,17.7782344818115
148,50.6953,13.7716369628906
149,50.7003,5.90157413482666
150,50.7038,14.3757753372192
151,50.7091,11.4270343780518
152,50.7127,9.81783962249756
153,50.7162,10.2168216705322
154,50.7193,10.0988054275513
155,50.7272,20.4390659332275
156,50.7312,19.4194183349609
157,50.7347,10.2694759368896
158,50.7375,9.43270874023438
159,50.7471,10.0184049606323
160,50.7546,26.3406276702881
161,50.7587,9.37668323516846
162,50.7628,26.3673000335693
163,50.7666,4.59419631958008
164,50.7756,14.0847501754761
165,50.7796,14.6800518035889
166,50.7839,4.53971576690674
167,50.7865,27.2994785308838
168,50.7913,18.5574436187744
169,50.7946,4.3316125869751
170,50.8000,30.8885860443115
171,50.8031,4.47530269622803
172,50.8082,15.4489164352417
173,50.8125,13.3915271759033
174,50.8175,14.958119392395
175,50.8200,6.65250635147095
176,50.8232,36.3286514282227
177,50.8263,9.13138008117676
178,50.8302,29.4746971130371
179,50.8345,8.62155342102051
180,50.8385,17.2153301239014
181,50.8438,9.10009956359863
182,50.8475,24.5585842132568
183,50.8528,28.6020622253418
184,50.8572,15.6484861373901
185,50.8615,19.5373592376709
186,50.8652,23.2659645080566
187,50.8708,29.1114959716797
188,50.8748,20.7298946380615
189,50.8772,18.5716705322266
190,50.8796,17.7325172424316
191,50.8825,19.6349868774414
192,50.8863,11.4595489501953
193,50.8910,17.84743309021
194,50.8945,16.6588401794434
195,50.9002,23.1752071380615
196,50.9057,20.6632976531982
197,50.9115,21.847827911377
198,50.9178,13.0827970504761
199,50.9217,35.7430114746094
200,50.9253,4.27985095977783
201,50.9290,19.0095481872559
202,50.9329,20.6996040344238
203,50.9362,9.01661968231201
204,50.9390,4.97228240966797
205,50.9444,8.66492176055908
206,50.9481,6.69805526733398
207,50.9508,13.4542865753174
208,50.9542,17.0260887145996
209,50.9559,16.0876369476318
210,50.9610,10.2063999176025
211,50.9633,9.41971492767334
212,50.9675,10.2190837860107
213,50.9713,16.10276222229
214,50.9745,9.02110004425049
215,50.9788,20.1441650390625
216,50.9844,41.8355827331543
217,50.9891,9.19219493865967
218,50.9955,17.8611183166504
219,50.9997,17.8524208068848
220,51.0026,19.9888973236084
221,51.0061,17.5472049713135
222,51.0108,15.1464977264404
223,51.0144,45.8364944458008
224,51.0180,9.27581596374512
225,51.0210,8.82073783874512
226,51.0246,33.9117279052734
227,51.0284,9.56081295013428
228,51.0323,13.1260509490967
229,51.0409,9.60143280029297
230,51.0446,17.8160362243652
231,51.0476,4.82611417770386
232,51.0528,19.8985252380371
233,51.0579,4.75200653076172
234,51.0610,20.7815132141113
235,51.0656,9.11310863494873
236,51.0718,9.07685565948486
237,51.0747,6.02394771575928
238,51.0796,20.3615913391113
239,51.0890,19.9676265716553
240,51.0942,11.8420009613037
241,51.0982,14.7533130645752
242,51.1017,19.2273788452148
243,51.1090,7.54336547851563
244,51.1122,14.8152713775635
245,51.1168,23.6661281585693
246,51.1206,16.8520469665527
247,51.1280,12.1645202636719
248,51.1321,4.29464292526245
249,51.1353,4.76938819885254
250,51.1395,4.0194263458252
251,51.1425,18.0871849060059
252,51.1463,8.77475547790527
253,51.1488,26.9017581939697
254,51.1572,38.4193382263184
255,51.1630,10.2355117797852
256,51.1684,20.2533111572266
257,51.1749,18.5929698944092
258,51.1782,14.3305225372314
259,51.1857,5.12502574920654
260,51.1892,4.50031757354736
261,51.1921,10.1350231170654
262,51.1966,30.7661933898926
263,51.2027,36.6523780822754
264,51.2090,21.951732635498
265,51.2184,5.77155017852783
266,51.2233,15.0528078079224
267,51.2270,14.1138401031494
268,51.2313,10.6681842803955
269,51.2355,21.5912227630615
270,51.2411,31.1226463317871
271,51.2447,10.6363010406494
272,51.2590,23.2942180633545
273,51.2624,24.5109004974365
274,51.2673,14.5514907836914
275,51.2732,8.73564147949219
276,51.2771,4.60017871856689
277,51.2805,4.84062480926514
278,51.2857,8.9141960144043
279,51.2902,15.0127897262573
280,51.2981,13.2291593551636
281,51.3049,29.6314487457275
282,51.3075,10.3188781738281
283,51.3144,16.2677326202393
284,51.3182,9.56278038024902
285,51.3223,10.2595729827881
286,51.3282,14.0245943069458
287,51.3337,25.6719875335693
288,51.3384,6.4503927230835
289,51.3452,28.866039276123
290,51.3507,33.0155487060547
291,51.3549,10.8694438934326
292,51.3611,24.0088138580322
293,51.3645,18.659122467041
294,51.3666,35.8543968200684
295,51.3709,15.837158203125
296,51.3741,13.7575626373291
297,51.3773,9.44990253448486
298,51.3823,21.0248641967773
299,51.3855,5.13000011444092
300,51.3879,12.7223215103149
301,51.3960,21.8798122406006
302,51.4031,40.7571182250977
303,51.4086,35.1727523803711
304,51.4118,35.3548126220703
305,51.4183,5.24084806442261
306,51.4269,14.0222034454346
307,51.4327,27.3271827697754
308,51.4364,13.628137588501
309,51.4456,9.33800792694092
310,51.4484,22.6197490692139
311,51.4538,4.44945001602173
312,51.4564,11.7811813354492
313,51.4623,8.59837055206299
314,51.4687,4.31544971466064
315,51.4739,13.1666698455811
316,51.4803,34.8409538269043
317,51.4851,13.9955244064331
318,51.4895,31.7926177978516
319,51.4953,9.19987010955811
320,51.5026,18.9650115966797
321,51.5110,7.5936164855957
322,51.5152,13.8515377044678
323,51.5207,19.5351161956787
324,51.5248,24.3287944793701
325,51.5300,10.8289127349854
326,51.5338,15.3004636764526
327,51.5368,4.66611576080322
328,51.5412,10.4320964813232
329,51.5447,9.00274467468262
330,51.5506,25.1582469940186
331,51.5545,10.3027715682983
332,51.5582,25.4133796691895
333,51.5616,22.5468635559082
334,51.5677,8.98508644104004
335,51.5735,9.26595115661621
336,51.5794,4.38091945648193
337,51.5837,22.644229888916
338,51.5868,10.4635953903198
339,51.5896,15.0681476593018
340,51.5930,10.2738161087036
341,51.5958,23.5912609100342
342,51.6012,36.2201995849609
343,51.6059,16.1240348815918
344,51.6117,28.64186668396
345,51.6152,18.5494613647461
346,51.6204,34.7363967895508
347,51.6286,19.0504550933838
348,51.6314,15.9571990966797
349,51.6359,18.8894233703613
350,51.6408,26.8683567047119
351,51.6435,4.49006223678589
352,51.6468,18.9456596374512
353,51.6543,44.3353424072266
354,51.6579,9.42998123168945
355,51.6618,5.31894969940186
356,51.6646,28.1282768249512
357,51.6699,19.7840003967285
358,51.6723,10.1635665893555
359,51.6769,13.4665203094482
360,51.6809,4.53875160217285
361,51.6839,15.0524749755859
362,51.6870,4.53000640869141
363,51.6907,18.6522789001465
364,51.6954,3.89453125
365,51.7003,14.5748796463013
366,51.7060,14.5072040557861
367,51.7099,3.95966482162476
368,51.7128,6.89631128311157
369,51.7197,15.0138654708862
370,51.7243,23.2353401184082
371,51.7272,5.4035005569458
372,51.7331,19.3589897155762
373,51.7376,21.4715843200684
374,51.7445,18.1792411804199
375,51.7480,35.4241371154785
376,51.7539,22.9195213317871
377,51.7591,13.4373044967651
378,51.7668,8.8222017288208
379,51.7700,9.25540161132813
380,51.7770,9.16821479797363
381,51.7801,13.7051267623901
382,51.7849,9.30436992645264
383,51.7884,13.8208408355713
384,51.7941,14.9812393188477
385,51.7984,4.71116256713867
386,51.8012,4.50234365463257
387,51.8050,26.4875297546387
388,51.8084,6.12160587310791
389,51.8115,20.557430267334
390,51.8153,5.15350437164307
391,51.8192,14.6063175201416
392,51.8227,28.8873538970947
393,51.8279,15.1642866134644
394,51.8311,9.87356758117676
395,51.8350,30.5153846740723
396,51.8408,21.2630195617676
397,51.8453,23.5139007568359
398,51.8481,18.9075889587402
399,51.8511,5.70575094223022
400,51.8635,30.4698143005371
401,51.8664,4.65932130813599
402,51.8703,4.87661266326904
403,51.8739,16.9187717437744
404,51.8808,40.195972442627
405,51.8841,8.97451972961426
406,51.8892,9.92702293395996
407,51.8924,14.7020435333252
408,51.8981,22.2363471984863
409,51.9042,19.2610816955566
410,51.9109,21.9737968444824
411,51.9150,19.9959831237793
412,51.9195,29.2306327819824
413,51.9236,9.62151336669922
414,51.9279,22.3147010803223
415,51.9323,24.1968574523926
416,51.9369,29.7533779144287
417,51.9456,51.5502433776855
418,51.9523,11.9861135482788
419,51.9596,10.0556993484497
420,51.9670,5.04595851898193
421,51.9701,16.4681606292725
422,51.9740,9.59108543395996
423,51.9780,16.2991809844971
424,51.9827,4.46485137939453
425,51.9873,13.6717853546143
426,51.9922,27.8140602111816
427,51.9965,14.4617357254028
428,52.0062,21.8056221008301
429,52.0089,8.74394512176514
430,52.0131,12.2091693878174
431,52.0181,3.91250658035278
432,52.0214,23.1884117126465
433,52.0268,20.894359588623
434,52.0312,11.8345794677734
435,52.0347,15.347635269165
436,52.0440,24.7326354980469
437,52.0490,19.1280937194824
438,52.0522,12.4983739852905
439,52.0540,21.8072566986084
440,52.0586,4.46045970916748
441,52.0632,4.44555950164795
442,52.0696,14.7060565948486
443,52.0728,8.37453651428223
444,52.0797,4.88566017150879
445,52.0829,7.48190069198608
446,52.0887,23.8891906738281
447,52.0962,21.3341274261475
448,52.0986,14.0593509674072
449,52.1052,10.1790294647217
450,52.1084,4.35329627990723
451,52.1133,14.0753784179688
452,52.1216,10.948878288269
453,52.1266,34.517879486084
454,52.1315,10.4246397018433
455,52.1359,9.92115306854248
456,52.1411,18.4337844848633
457,52.1470,14.7223787307739
458,52.1531,16.8681983947754
459,52.1591,19.5540924072266
460,52.1621,6.41489315032959
461,52.1727,18.0378360748291
462,52.1765,25.966739654541
463,52.1814,13.2247524261475
464,52.1896,16.9695281982422
465,52.1934,20.4854068756104
466,52.1976,25.3808212280273
467,52.2062,9.96125316619873
468,52.2089,12.5417041778564
469,52.2138,10.1296939849854
470,52.2212,23.1157493591309
471,52.2270,13.7732038497925
472,52.2349,31.110876083374
473,52.2420,10.0404233932495
474,52.2476,14.3256397247314
475,52.2521,17.6896438598633
476,52.2570,4.70346355438232
477,52.2623,14.3719348907471
478,52.2662,14.0034809112549
479,52.2704,14.8102111816406
480,52.2749,20.3182029724121
481,52.2792,8.81615257263184
482,52.2830,14.6323490142822
483,52.2876,5.9605073928833
484,52.2909,25.5709934234619
485,52.2939,12.343578338623
486,52.2979,13.9009523391724
487,52.3030,21.0204124450684
488,52.3170,16.8819541931152
489,52.3212,9.31086730957031
490,52.3246,14.1136016845703
491,52.3313,14.0665102005005
492,52.3369,23.7527847290039
493,52.3404,20.487190246582
494,52.3435,23.7280311584473
495,52.3472,10.3989315032959
496,52.3499,14.413969039917
497,52.3561,21.6676120758057
498,52.3596,13.1766510009766
499,52.3680,29.0708503723145
500,52.3709,4.66457462310791
501,52.3736,38.1028671264648
502,52.3804,30.0988826751709
503,52.3865,24.113842010498
504,52.3895,25.6845149993896
505,52.3930,15.4559373855591
506,52.3962,6.04823446273804
507,52.4009,36.2656784057617
508,52.4059,30.4099082946777
509,52.4129,22.1021060943604
510,52.4185,19.9540100097656
511,52.4259,5.07710027694702
512,52.4288,13.8479766845703
513,52.4326,14.4504146575928
514,52.4362,4.56682777404785
515,52.4408,29.084171295166
516,52.4502,20.3078765869141
517,52.4570,35.5039443969727
518,52.4616,7.33066558837891
519,52.4652,18.7026138305664
520,52.4704,5.84378719329834
521,52.4732,7.43141794204712
522,52.4797,18.1838722229004
523,52.4890,19.7278995513916
524,52.4924,4.50010108947754
525,52.4958,29.9008693695068
526,52.5014,22.6796455383301
527,52.5041,10.4668416976929
528,52.5075,14.7646160125732
529,52.5130,8.07277202606201
530,52.5169,11.2438945770264
531,52.5211,9.66869926452637
532,52.5267,10.7374334335327
533,52.5339,15.0373048782349
534,52.5389,29.064022064209
535,52.5496,19.9474010467529
536,52.5574,24.1526184082031
537,52.5668,20.8518409729004
538,52.5708,13.9171047210693
539,52.5740,21.4724464416504
540,52.5770,13.6116809844971
541,52.5810,4.68018960952759
542,52.5846,10.107985496521
543,52.5896,13.7092695236206
544,52.5930,4.69500589370728
545,52.5976,21.7953701019287
546,52.6015,32.4133987426758
547,52.6072,22.2965507507324
548,52.6107,8.51038360595703
549,52.6158,14.2683162689209
550,52.6192,23.6906967163086
551,52.6240,13.3538408279419
552,52.6279,10.3002824783325
553,52.6329,13.3239612579346
554,52.6398,15.12961769104
555,52.6434,11.5604114532471
556,52.6469,5.47700262069702
557,52.6519,9.72509765625
558,52.6542,4.69651460647583
559,52.6601,10.0091438293457
560,52.6653,14.9980850219727
561,52.6689,4.51477289199829
562,52.6765,5.83805799484253
563,52.6797,4.65671491622925
564,52.6832,23.0361671447754
565,52.6927,16.3807125091553
566,52.6962,23.7161197662354
567,52.7009,27.0409202575684
568,52.7039,10.0562152862549
569,52.7130,8.60987663269043
570,52.7190,31.8135070800781
571,52.7248,24.5123081207275
572,52.7282,19.476863861084
573,52.7328,15.4394884109497
574,52.7458,4.79977178573608
575,52.7498,17.3961124420166
576,52.7550,12.6183767318726
577,52.7587,7.27554988861084
578,52.7654,15.6617794036865
579,52.7707,33.1268043518066
580,52.7763,18.4358901977539
581,52.7810,22.2171745300293
582,52.7880,19.8255481719971
583,52.7913,24.9637031555176
584,52.7967,29.3275184631348
585,52.8025,14.254620552063
586,52.8104,15.1434144973755
587,52.8191,24.0518417358398
588,52.8247,15.4083919525146
589,52.8299,9.73347663879395
590,52.8350,23.3949775695801
591,52.8404,12.8976745605469
592,52.8446,19.3835258483887
593,52.8506,29.1821041107178
594,52.8551,8.66716957092285
595,52.8588,4.80001354217529
596,52.8658,9.83289813995361
597,52.8688,8.98381614685059
598,52.8719,18.821346282959
599,52.8764,11.4185438156128
600,52.8812,15.4772691726685
601,52.8865,8.83644104003906
602,52.8910,9.55954742431641
603,52.8976,15.7142791748047
604,52.9032,9.50345134735107
605,52.9091,20.9371356964111
606,52.9125,23.3005981445313
607,52.9144,8.90370655059814
608,52.9181,8.86356544494629
609,52.9213,8.88471603393555
610,52.9262,33.6472549438477
611,52.9314,14.9001388549805
612,52.9361,10.9848718643188
613,52.9431,9.68810367584229
614,52.9482,6.51481151580811
615,52.9521,5.95946788787842
616,52.9549,11.6070728302002
617,52.9594,9.48957347869873
618,52.9620,8.87339210510254
619,52.9675,14.5347471237183
620,52.9707,18.6484222412109
621,52.9734,15.4811220169067
622,52.9781,20.6264533996582
623,52.9839,10.0553846359253
624,52.9877,26.5743350982666
625,52.9987,28.168249130249
626,53.0036,23.7532005310059
627,53.0094,46.9750480651855
628,53.0162,9.0306282043457
629,53.0188,30.8788204193115
630,53.0236,5.29483509063721
631,53.0266,22.1262092590332
632,53.0314,16.1738700866699
633,53.0364,19.9561653137207
634,53.0405,53.231201171875
635,53.0464,18.6179885864258
636,53.0512,10.0493106842041
637,53.0571,28.4595146179199
638,53.0611,14.2915143966675
639,53.0669,9.40589332580566
640,53.0741,30.8454132080078
641,53.0781,4.47863912582397
642,53.0822,15.0250444412231
643,53.0868,5.78448390960693
644,53.0906,9.31685638427734
645,53.0962,23.1188087463379
646,53.0999,30.6744842529297
647,53.1049,17.9771156311035
648,53.1084,9.25527954101563
649,53.1128,10.316198348999
650,53.1168,13.7421321868896
651,53.1197,29.1555480957031
652,53.1317,18.7696723937988
653,53.1359,10.5312042236328
654,53.1424,4.85051012039185
655,53.1480,14.1956272125244
656,53.1528,4.63736438751221
657,53.1558,31.1859169006348
658,53.1615,10.9419269561768
659,53.1661,9.34963893890381
660,53.1689,17.9591102600098
661,53.1722,21.3798999786377
662,53.1775,14.3716678619385
663,53.1806,20.9707164764404
664,53.1859,9.03546619415283
665,53.1907,14.2027988433838
666,53.1964,25.8572883605957
667,53.2023,4.79287624359131
668,53.2053,22.8676452636719
