#"-ESI Scan (rt: 0.054-1.017 min, 80 scans) Frag=175.0V wash12.d "
#Point,X(Thompsons),Y(Counts)
0,50.0021,11.8110637664795
1,50.0051,12.2029695510864
2,50.0089,11.9952268600464
3,50.0116,15.8436889648438
4,50.0161,41.2848205566406
5,50.0200,11.5947418212891
6,50.0238,4.75024890899658
7,50.0271,14.8225202560425
8,50.0326,18.1485900878906
9,50.0371,5.00703144073486
10,50.0436,27.0410003662109
11,50.0463,20.7110786437988
12,50.0513,15.6838779449463
13,50.0554,29.1425819396973
14,50.0587,5.68380451202393
15,50.0615,21.0019683837891
16,50.0673,22.5159130096436
17,50.0760,20.2664451599121
18,50.0826,10.3552026748657
19,50.0862,14.6485958099365
20,50.0920,9.13280391693115
21,50.0964,15.6167163848877
22,50.0995,10.2143507003784
23,50.1020,10.7973651885986
24,50.1059,14.0143203735352
25,50.1118,24.2442626953125
26,50.1192,9.05955982208252
27,50.1220,17.0611839294434
28,50.1274,30.5535526275635
29,50.1329,9.42062568664551
30,50.1370,9.76452445983887
31,50.1398,4.86428499221802
32,50.1428,9.93859481811523
33,50.1479,19.3937072753906
34,50.1558,30.4628639221191
35,50.1622,20.2401924133301
36,50.1685,39.6203498840332
37,50.1725,10.1144351959229
38,50.1785,17.5512294769287
39,50.1819,11.3674182891846
40,50.1901,11.3281726837158
41,50.1944,4.95361804962158
42,50.1974,9.85146903991699
43,50.2023,21.5563640594482
44,50.2063,22.332691192627
45,50.2084,4.95451402664185
46,50.2111,4.46182441711426
47,50.2190,5.96857643127441
48,50.2231,17.513578414917
49,50.2275,12.9833860397339
50,50.2309,9.38646221160889
51,50.2365,15.1355543136597
52,50.2394,10.4124269485474
53,50.2452,4.64866209030151
54,50.2513,25.8155097961426
55,50.2556,8.83914184570313
56,50.2605,10.6073026657104
57,50.2637,27.5693969726563
58,50.2682,21.447998046875
59,50.2727,21.5588569641113
60,50.2801,23.4631080627441
61,50.2853,12.9773588180542
62,50.2946,54.5647392272949
63,50.2997,5.37591314315796
64,50.3037,26.8525295257568
65,50.3076,21.4152355194092
66,50.3127,16.109504699707
67,50.3177,28.5805702209473
68,50.3245,14.6584596633911
69,50.3283,25.384578704834
70,50.3322,18.928897857666
71,50.3371,11.8454236984253
72,50.3420,31.2607269287109
73,50.3470,9.8793249130249
74,50.3492,27.3774566650391
75,50.3518,10.6377000808716
76,50.3558,29.926736831665
77,50.3605,15.7986936569214
78,50.3639,22.5470180511475
79,50.3687,15.6727046966553
80,50.3713,15.4391860961914
81,50.3826,22.6834869384766
82,50.3870,15.4790906906128
83,50.3898,20.2919368743896
84,50.3938,16.7085380554199
85,50.3977,20.231258392334
86,50.4016,9.57366943359375
87,50.4058,19.3723030090332
88,50.4124,30.2019138336182
89,50.4153,4.74926471710205
90,50.4182,15.1895542144775
91,50.4211,4.6740198135376
92,50.4261,21.2503910064697
93,50.4292,16.6701622009277
94,50.4362,14.4716396331787
95,50.4433,22.486536026001
96,50.4489,30.3335723876953
97,50.4535,20.5198993682861
98,50.4580,10.0312919616699
99,50.4623,15.7431945800781
100,50.4684,15.0910358428955
101,50.4714,4.41251039505005
102,50.4750,31.153865814209
103,50.4789,5.82500553131104
104,50.4843,5.32929277420044
105,50.4895,10.4915885925293
106,50.4918,10.5617427825928
107,50.4966,15.9359836578369
108,50.5005,27.1059055328369
109,50.5061,14.6225175857544
110,50.5108,10.1804637908936
111,50.5167,8.77909183502197
112,50.5196,8.52834320068359
113,50.5227,10.8700103759766
114,50.5261,22.1542110443115
115,50.5299,11.2020282745361
116,50.5340,23.3887977600098
117,50.5390,14.8484439849854
118,50.5436,34.4901657104492
119,50.5483,5.82988166809082
120,50.5548,19.8143634796143
121,50.5624,19.6166305541992
122,50.5652,10.2091722488403
123,50.5683,10.9454221725464
124,50.5737,17.8238716125488
125,50.5771,9.48148059844971
126,50.5821,23.6554660797119
127,50.5857,19.8370380401611
128,50.5892,10.9586448669434
129,50.5924,9.70401763916016
130,50.5951,26.1420402526855
131,50.5996,19.7784385681152
132,50.6046,9.41720867156982
133,50.6081,12.8257312774658
134,50.6115,4.33343744277954
135,50.6175,10.4220333099365
136,50.6205,20.8552665710449
137,50.6252,8.25699615478516
138,50.6289,34.7286605834961
139,50.6330,25.0705490112305
140,50.6385,9.93635368347168
141,50.6429,15.91565990448
142,50.6470,14.6724262237549
143,50.6520,15.3341245651245
144,50.6552,10.1094074249268
145,50.6585,23.0806770324707
146,50.6650,5.55187320709229
147,50.6702,20.8408622741699
148,50.6766,10.4566097259521
149,50.6811,29.4966793060303
150,50.6858,6.11966848373413
151,50.6887,10.5520038604736
152,50.6941,22.4737224578857
153,50.6967,13.2764949798584
154,50.7005,10.9260530471802
155,50.7081,21.8424949645996
156,50.7148,19.6913032531738
157,50.7210,18.8674201965332
158,50.7305,15.1265821456909
159,50.7339,16.1455554962158
160,50.7390,11.3228254318237
161,50.7417,20.7186889648438
162,50.7459,4.99053287506104
163,50.7498,14.2770919799805
164,50.7549,23.9130363464355
165,50.7597,18.3095932006836
166,50.7642,14.9718933105469
167,50.7697,7.04566287994385
168,50.7744,9.56971263885498
169,50.7781,19.8425216674805
170,50.7819,5.31505680084229
171,50.7846,9.17422676086426
172,50.7909,5.06285190582275
173,50.7998,14.3966999053955
174,50.8061,23.2221927642822
175,50.8138,11.8944082260132
176,50.8161,13.9637956619263
177,50.8202,5.859055519104
178,50.8230,21.2795925140381
179,50.8289,6.04506349563599
180,50.8442,15.2496643066406
181,50.8492,5.10652160644531
182,50.8543,15.205846786499
183,50.8596,10.719651222229
184,50.8646,21.8323860168457
185,50.8684,11.3139142990112
186,50.8709,44.2557067871094
187,50.8783,20.1509037017822
188,50.8817,27.4456081390381
189,50.8840,15.0378923416138
190,50.8886,18.7570533752441
191,50.8943,20.7857246398926
192,50.8971,15.3694486618042
193,50.9010,19.8369693756104
194,50.9066,16.0410785675049
195,50.9103,5.37504482269287
196,50.9135,6.3273549079895
197,50.9178,26.532434463501
198,50.9219,10.8430080413818
199,50.9258,14.7214946746826
200,50.9327,21.82546043396
201,50.9397,44.132942199707
202,50.9467,33.2635116577148
203,50.9516,4.8934965133667
204,50.9547,17.273868560791
205,50.9568,6.54167699813843
206,50.9683,40.491283416748
207,50.9734,18.6478118896484
208,50.9781,13.9177951812744
209,50.9838,53.1232490539551
210,50.9875,10.7149486541748
211,50.9927,14.5688571929932
212,50.9992,12.7890253067017
213,51.0041,10.1800584793091
214,51.0087,19.4036426544189
215,51.0136,5.722496509552
216,51.0180,4.57676029205322
217,51.0223,20.6741676330566
218,51.0257,17.5808200836182
219,51.0358,8.77234935760498
220,51.0412,19.7242393493652
221,51.0471,24.5960273742676
222,51.0541,41.2853736877441
223,51.0612,17.1329669952393
224,51.0641,17.9650783538818
225,51.0700,13.7605228424072
226,51.0735,19.5180988311768
227,51.0840,15.6228351593018
228,51.0883,30.016429901123
229,51.0914,5.02193975448608
230,51.0946,21.5545234680176
231,51.1005,14.7207126617432
232,51.1036,10.8179883956909
233,51.1076,26.1307010650635
234,51.1135,32.5613632202148
235,51.1165,30.5248165130615
236,51.1200,10.0795631408691
237,51.1225,8.80254745483398
238,51.1261,5.31528186798096
239,51.1288,5.47698497772217
240,51.1323,15.1970901489258
241,51.1370,5.13629531860352
242,51.1421,20.3994102478027
243,51.1461,21.793384552002
244,51.1516,22.582067489624
245,51.1564,16.1187896728516
246,51.1606,26.1593723297119
247,51.1666,17.0669555664063
248,51.1702,5.46476078033447
249,51.1783,6.3075647354126
250,51.1824,25.8344821929932
251,51.1857,4.84348154067993
252,51.1885,20.401050567627
253,51.1941,31.624584197998
254,51.1991,24.0625095367432
255,51.2033,20.3790130615234
256,51.2091,5.17934036254883
257,51.2153,9.98937797546387
258,51.2215,10.140419960022
259,51.2264,18.6581764221191
260,51.2293,10.5415859222412
261,51.2324,10.4906463623047
262,51.2387,14.6559772491455
263,51.2435,9.35133171081543
264,51.2469,9.14605712890625
265,51.2546,21.1441040039063
266,51.2597,33.625846862793
267,51.2625,30.2516536712646
268,51.2678,4.7779016494751
269,51.2731,17.5301113128662
270,51.2802,9.51922130584717
271,51.2858,10.7052059173584
272,51.2922,38.0742263793945
273,51.2985,9.43023109436035
274,51.3035,22.3280181884766
275,51.3085,11.7640428543091
276,51.3124,5.52706623077393
277,51.3169,10.1102819442749
278,51.3238,16.3459186553955
279,51.3280,35.406867980957
280,51.3337,20.6940956115723
281,51.3379,23.304874420166
282,51.3418,14.5987091064453
283,51.3479,14.0126800537109
284,51.3516,4.75468730926514
285,51.3554,4.75450420379639
286,51.3593,10.6838178634644
287,51.3624,14.7477750778198
288,51.3659,22.1944885253906
289,51.3703,5.5376296043396
290,51.3762,21.5890159606934
291,51.3803,6.55771493911743
292,51.3852,20.3166542053223
293,51.3898,15.2416582107544
294,51.3953,5.77387714385986
295,51.3988,4.52660465240479
296,51.4016,32.2975120544434
297,51.4042,11.5025844573975
298,51.4086,14.557635307312
299,51.4139,32.0186157226563
300,51.4194,14.4286346435547
301,51.4221,19.0903205871582
302,51.4289,10.6165132522583
303,51.4328,39.5703125
304,51.4357,12.0652570724487
305,51.4395,13.5455141067505
306,51.4433,9.94983863830566
307,51.4477,16.5642757415771
308,51.4507,11.3823118209839
309,51.4558,10.0263595581055
310,51.4607,21.2249069213867
311,51.4655,10.4975490570068
312,51.4703,14.7426223754883
313,51.4757,9.45338535308838
314,51.4809,17.426736831665
315,51.4861,26.9139976501465
316,51.4921,11.6339225769043
317,51.4946,16.001184463501
318,51.4994,32.254020690918
319,51.5041,23.4635105133057
320,51.5104,10.0997877120972
321,51.5157,27.3445739746094
322,51.5204,13.2791233062744
323,51.5237,17.3287315368652
324,51.5300,32.0726852416992
325,51.5360,4.45745134353638
326,51.5403,20.8050212860107
327,51.5447,4.5138521194458
328,51.5485,9.70784187316895
329,51.5545,13.156042098999
330,51.5597,20.5665187835693
331,51.5681,40.8085594177246
332,51.5750,21.4172515869141
333,51.5799,21.7976379394531
334,51.5822,11.1789455413818
335,51.5916,27.6630191802979
336,51.5976,4.71620464324951
337,51.6044,10.322657585144
338,51.6135,5.28638935089111
339,51.6174,5.00529766082764
340,51.6230,4.39450216293335
341,51.6258,4.63912963867188
342,51.6289,14.0477809906006
343,51.6351,14.4309597015381
344,51.6400,5.35065650939941
345,51.6437,9.14206218719482
346,51.6485,37.5032196044922
347,51.6530,12.5298938751221
348,51.6565,16.1333675384521
349,51.6601,16.0200901031494
350,51.6633,26.5498657226563
351,51.6690,14.8649806976318
352,51.6779,15.9097518920898
353,51.6810,5.35002613067627
354,51.6845,29.712329864502
355,51.6900,9.58291053771973
356,51.6944,9.68230152130127
357,51.6978,5.3876690864563
358,51.7002,21.70676612854
359,51.7038,25.136266708374
360,51.7084,24.390115737915
361,51.7115,17.1752490997314
362,51.7179,10.9270839691162
363,51.7221,9.64679050445557
364,51.7252,10.9183979034424
365,51.7302,17.0488586425781
366,51.7348,21.0739326477051
367,51.7389,16.6779155731201
368,51.7422,11.3436279296875
369,51.7446,5.26330661773682
370,51.7495,15.7314968109131
371,51.7555,5.43757820129395
372,51.7616,6.02554368972778
373,51.7652,17.796947479248
374,51.7679,14.8823976516724
375,51.7720,5.70385551452637
376,51.7774,22.8369483947754
377,51.7815,4.96872234344482
378,51.7844,10.7641735076904
379,51.7886,25.0341033935547
380,51.7922,5.59466648101807
381,51.7995,26.6435642242432
382,51.8075,26.8577785491943
383,51.8108,14.87917137146
384,51.8140,5.44990968704224
385,51.8177,14.3160066604614
386,51.8227,16.4090404510498
387,51.8262,15.6385774612427
388,51.8301,34.3176879882813
389,51.8339,23.4332008361816
390,51.8384,26.2161655426025
391,51.8448,10.9119462966919
392,51.8497,29.7464904785156
393,51.8550,32.2386627197266
394,51.8618,27.9253845214844
395,51.8672,15.5386686325073
396,51.8712,9.62763118743896
397,51.8748,14.6734600067139
398,51.8816,4.59306049346924
399,51.8859,5.17660045623779
400,51.8896,14.6047229766846
401,51.8948,14.9817142486572
402,51.8989,29.2728824615479
403,51.9036,36.5140914916992
404,51.9083,14.8055086135864
405,51.9145,9.73387336730957
406,51.9219,21.7072868347168
407,51.9317,25.8969669342041
408,51.9365,19.2506294250488
409,51.9404,4.81859922409058
410,51.9427,26.4063816070557
411,51.9477,5.76292896270752
412,51.9529,37.5437240600586
413,51.9578,12.4686126708984
414,51.9624,23.8384284973145
415,51.9668,24.3255271911621
416,51.9720,12.3673400878906
417,51.9758,14.5001468658447
418,51.9799,9.16313743591309
419,51.9912,16.7366313934326
420,51.9980,14.9916305541992
421,52.0003,4.59637641906738
422,52.0064,4.84019374847412
423,52.0100,8.15812873840332
424,52.0163,27.571720123291
425,52.0215,25.0455322265625
426,52.0244,10.8173751831055
427,52.0282,20.9951152801514
428,52.0323,17.241756439209
429,52.0372,14.2383975982666
430,52.0419,15.8944063186646
431,52.0449,16.7277870178223
432,52.0523,10.1256465911865
433,52.0554,21.5762386322021
434,52.0633,15.4055433273315
435,52.0664,9.04936218261719
436,52.0714,27.1134433746338
437,52.0808,9.74859428405762
438,52.0866,9.8104419708252
439,52.0896,9.96153831481934
440,52.0943,36.6108169555664
441,52.0993,10.1455917358398
442,52.1043,14.2425336837769
443,52.1073,14.6372833251953
444,52.1122,10.3054904937744
445,52.1164,4.62810659408569
446,52.1210,4.85272693634033
447,52.1270,5.74188089370728
448,52.1319,11.700083732605
449,52.1354,6.02114248275757
450,52.1396,20.1018123626709
451,52.1441,21.4738826751709
452,52.1468,4.6633415222168
453,52.1521,10.2895526885986
454,52.1551,4.61282300949097
455,52.1581,37.7964706420898
456,52.1639,22.1365566253662
457,52.1696,33.2526473999023
458,52.1733,23.2349815368652
459,52.1770,10.6464281082153
460,52.1824,14.1405687332153
461,52.1891,27.5060768127441
462,52.1943,5.1087007522583
463,52.1968,16.4115390777588
464,52.2017,14.7674989700317
465,52.2057,17.9750289916992
466,52.2091,15.0429821014404
467,52.2138,20.533655166626
468,52.2184,34.2126235961914
469,52.2242,10.2679929733276
470,52.2323,8.83085060119629
471,52.2419,9.80806541442871
472,52.2480,15.1621723175049
473,52.2522,10.5778636932373
474,52.2574,11.5010871887207
475,52.2624,10.1793842315674
476,52.2644,8.95451259613037
477,52.2693,10.6469106674194
478,52.2735,19.6705741882324
479,52.2817,4.49884700775146
480,52.2855,4.52950382232666
481,52.2890,4.85986137390137
482,52.2946,22.5282592773438
483,52.3003,15.5069675445557
484,52.3042,16.2036991119385
485,52.3082,17.6823425292969
486,52.3135,21.3586158752441
487,52.3194,5.20822238922119
488,52.3240,14.2069978713989
489,52.3295,9.67426300048828
490,52.3326,11.6198167800903
491,52.3366,19.7390823364258
492,52.3412,10.3886156082153
493,52.3458,9.77068519592285
494,52.3542,19.9534244537354
495,52.3581,20.4873313903809
496,52.3647,4.67806148529053
497,52.3692,5.97260093688965
498,52.3782,14.7663145065308
499,52.3811,15.7208633422852
500,52.3854,19.0426235198975
501,52.3886,11.4691066741943
502,52.3916,9.59718608856201
503,52.3947,4.71406269073486
504,52.3994,28.3470649719238
505,52.4068,14.4540271759033
506,52.4104,19.0714683532715
507,52.4136,20.3171195983887
508,52.4181,5.07997989654541
509,52.4222,10.5142698287964
510,52.4272,19.7562522888184
511,52.4378,9.86384391784668
512,52.4443,15.17360496521
513,52.4479,19.911714553833
514,52.4526,19.70485496521
515,52.4557,19.8004970550537
516,52.4611,21.0209083557129
517,52.4647,35.6184387207031
518,52.4703,4.9576997756958
519,52.4739,11.0269641876221
520,52.4799,36.9453430175781
521,52.4863,29.370922088623
522,52.4914,19.8141117095947
523,52.4951,35.7076759338379
524,52.4985,9.67450046539307
525,52.5030,15.82546043396
526,52.5060,26.537654876709
527,52.5110,15.1804885864258
528,52.5138,5.26962184906006
529,52.5165,15.5974168777466
530,52.5212,10.921238899231
531,52.5291,25.7156982421875
532,52.5338,8.83016014099121
533,52.5378,10.6463871002197
534,52.5405,8.94277667999268
535,52.5446,4.85014820098877
536,52.5510,10.0646276473999
537,52.5561,10.6158962249756
538,52.5595,14.2976379394531
539,52.5623,14.7328615188599
540,52.5663,6.331955909729
541,52.5705,20.990161895752
542,52.5742,5.19469928741455
543,52.5794,16.1789951324463
544,52.5839,31.7920684814453
545,52.5879,9.21957111358643
546,52.5921,20.1589050292969
547,52.5954,12.496244430542
548,52.5997,16.0650749206543
549,52.6031,16.8031120300293
550,52.6095,10.5310173034668
551,52.6154,9.67977905273438
552,52.6198,17.0943641662598
553,52.6218,4.69584083557129
554,52.6248,18.038501739502
555,52.6286,11.6938915252686
556,52.6326,16.2832641601563
557,52.6350,24.0980987548828
558,52.6390,11.3067684173584
559,52.6450,21.2329807281494
560,52.6499,4.57750034332275
561,52.6609,14.9544496536255
562,52.6648,11.8667440414429
563,52.6697,22.2717609405518
564,52.6736,18.8547496795654
565,52.6765,23.074312210083
566,52.6799,9.77054500579834
567,52.6830,2.92704343795776
568,52.6863,16.5690135955811
569,52.6897,4.97570323944092
570,52.6936,9.43167400360107
571,52.6966,11.4487466812134
572,52.7004,15.2779636383057
573,52.7055,45.5562019348145
574,52.7100,6.41237115859985
575,52.7144,16.3356113433838
576,52.7200,13.9554195404053
577,52.7253,20.2084770202637
578,52.7303,20.459300994873
579,52.7360,39.1521415710449
580,52.7412,18.7553157806396
581,52.7448,14.7848300933838
582,52.7488,6.51106023788452
583,52.7515,17.2756862640381
584,52.7552,29.5011291503906
585,52.7597,21.649621963501
586,52.7659,4.75933599472046
587,52.7696,27.0701904296875
588,52.7732,9.2427225112915
589,52.7788,5.76995038986206
590,52.7855,12.2294673919678
591,52.7902,6.39337635040283
592,52.7941,10.4846782684326
593,52.7996,30.0681915283203
594,52.8106,10.8000230789185
595,52.8170,4.47739267349243
596,52.8220,19.5657234191895
597,52.8253,12.3673305511475
598,52.8296,19.8055267333984
599,52.8348,27.3248081207275
600,52.8431,21.12158203125
601,52.8467,4.54600524902344
602,52.8508,9.79886817932129
603,52.8545,14.6075620651245
604,52.8598,42.8071098327637
605,52.8626,9.56865978240967
606,52.8661,16.7792720794678
607,52.8701,22.4649429321289
608,52.8847,27.4828433990479
609,52.8965,4.86891889572144
610,52.9015,31.3792304992676
611,52.9049,4.42593765258789
612,52.9096,28.4420204162598
613,52.9163,4.7780613899231
614,52.9207,14.4600448608398
615,52.9237,10.7661762237549
616,52.9266,21.4749011993408
617,52.9305,28.7835445404053
618,52.9332,22.5607566833496
619,52.9408,15.5135860443115
620,52.9448,36.8779830932617
621,52.9499,30.7671928405762
622,52.9576,9.16141700744629
623,52.9645,17.5678482055664
624,52.9732,19.4046649932861
625,52.9759,23.244457244873
626,52.9835,14.5745334625244
627,52.9919,14.228141784668
628,52.9961,15.0100040435791
629,53.0020,18.4233913421631
630,53.0065,23.0188655853271
631,53.0135,31.5595550537109
632,53.0209,35.055248260498
633,53.0250,14.7671403884888
634,53.0297,29.9012413024902
635,53.0349,21.9743385314941
636,53.0401,44.1085739135742
637,53.0463,43.077823638916
638,53.0499,11.3920564651489
639,53.0544,5.74907112121582
640,53.0573,10.4776935577393
641,53.0610,25.4706783294678
642,53.0636,14.6661958694458
643,53.0689,20.2860126495361
644,53.0796,25.0880718231201
645,53.0841,6.11513042449951
646,53.0884,4.93092107772827
647,53.0926,10.2502994537354
648,53.1017,5.65800094604492
649,53.1060,19.1795101165771
650,53.1090,5.01263904571533
651,53.1141,19.8267822265625
652,53.1202,12.5152378082275
653,53.1252,23.3255729675293
654,53.1295,20.1371479034424
655,53.1342,14.651104927063
656,53.1398,19.3846855163574
657,53.1430,16.3037204742432
658,53.1462,5.37689113616943
659,53.1509,24.2846984863281
660,53.1589,20.6240139007568
661,53.1677,9.39197731018066
662,53.1710,9.97639465332031
663,53.1766,31.8990840911865
664,53.1810,6.01933002471924
665,53.1849,25.903003692627
666,53.1907,20.5033683776855
667,53.1937,10.3849639892578
668,53.1970,4.62501382827759
669,53.2004,5.16105985641479
