#"-ESI Scan (rt: 0.056-1.018 min, 80 scans) Frag=175.0V wash1.d "
#Point,X(Thompsons),Y(Counts)
0,50.0024,15.9127063751221
1,50.0059,3.7170557975769
2,50.0105,38.0635070800781
3,50.0146,20.5050411224365
4,50.0171,4.18766164779663
5,50.0207,17.4301319122314
6,50.0288,21.0518951416016
7,50.0318,13.6410884857178
8,50.0364,10.0007419586182
9,50.0392,21.0415077209473
10,50.0424,9.15220928192139
11,50.0458,4.35699796676636
12,50.0495,13.5128803253174
13,50.0547,10.9476165771484
14,50.0580,24.8208160400391
15,50.0623,3.80459260940552
16,50.0702,4.56973266601563
17,50.0731,4.07873392105103
18,50.0761,9.38941192626953
19,50.0814,36.9995613098145
20,50.0858,4.44314479827881
21,50.0889,10.5834045410156
22,50.0915,20.4790172576904
23,50.0961,18.0570526123047
24,50.1004,25.5690269470215
25,50.1044,9.90151691436768
26,50.1072,14.2233629226685
27,50.1106,13.4254941940308
28,50.1156,8.52972030639648
29,50.1208,17.9357280731201
30,50.1265,16.5472030639648
31,50.1305,13.6132736206055
32,50.1359,14.4840602874756
33,50.1386,3.97380018234253
34,50.1422,4.25304889678955
35,50.1455,13.3355102539063
36,50.1517,12.1673736572266
37,50.1565,6.03086805343628
38,50.1618,8.3568000793457
39,50.1682,18.684907913208
40,50.1733,10.2939329147339
41,50.1776,4.94448375701904
42,50.1813,3.81887769699097
43,50.1847,19.7768478393555
44,50.1882,9.51802539825439
45,50.1912,12.6195650100708
46,50.1971,15.4104127883911
47,50.2035,22.1674919128418
48,50.2061,9.47518157958984
49,50.2092,8.2578296661377
50,50.2139,24.9108009338379
51,50.2188,13.3180446624756
52,50.2254,5.12942028045654
53,50.2290,13.091893196106
54,50.2324,5.29076099395752
55,50.2368,20.0761833190918
56,50.2429,9.81035614013672
57,50.2469,20.7748908996582
58,50.2524,19.1333465576172
59,50.2580,16.054817199707
60,50.2624,4.41967821121216
61,50.2665,2.55805921554565
62,50.2736,3.98997068405151
63,50.2820,19.9873600006104
64,50.2879,21.6618747711182
65,50.2912,9.02142906188965
66,50.2945,9.84180641174316
67,50.2992,20.797290802002
68,50.3027,9.95293426513672
69,50.3085,8.71109199523926
70,50.3168,14.7800016403198
71,50.3196,16.488697052002
72,50.3238,20.6652584075928
73,50.3274,4.34502601623535
74,50.3319,10.8115863800049
75,50.3344,13.3804273605347
76,50.3408,16.1177730560303
77,50.3490,10.3493900299072
78,50.3529,9.8099536895752
79,50.3605,5.14135122299194
80,50.3637,4.89571046829224
81,50.3707,22.7366905212402
82,50.3775,17.6977500915527
83,50.3808,10.8718700408936
84,50.3842,22.1545829772949
85,50.3876,15.4611530303955
86,50.3899,27.0999870300293
87,50.3942,9.00942993164063
88,50.3984,9.05599403381348
89,50.4021,13.1547565460205
90,50.4052,15.1006193161011
91,50.4096,8.91569900512695
92,50.4178,8.56748199462891
93,50.4217,15.3217029571533
94,50.4274,9.18896198272705
95,50.4331,4.67521572113037
96,50.4375,4.11906242370605
97,50.4411,22.2261714935303
98,50.4444,14.5788669586182
99,50.4496,8.98893165588379
100,50.4541,22.4463005065918
101,50.4583,6.80008316040039
102,50.4624,10.0373916625977
103,50.4667,5.04847097396851
104,50.4720,18.6735534667969
105,50.4773,16.5618324279785
106,50.4817,20.5272731781006
107,50.4853,5.74762630462646
108,50.4889,13.02858543396
109,50.4948,17.8689002990723
110,50.4980,12.4743022918701
111,50.5010,18.4849529266357
112,50.5047,9.13746452331543
113,50.5096,28.1547431945801
114,50.5144,13.9127960205078
115,50.5183,8.40320682525635
116,50.5220,16.598165512085
117,50.5252,3.96003723144531
118,50.5291,12.8866548538208
119,50.5338,4.07721090316772
120,50.5371,9.24289798736572
121,50.5413,4.55793952941895
122,50.5442,15.6518201828003
123,50.5537,13.3349361419678
124,50.5593,30.0617408752441
125,50.5641,13.0724306106567
126,50.5683,18.7738647460938
127,50.5746,22.3798313140869
128,50.5811,18.5717353820801
129,50.5839,5.66838932037354
130,50.5876,35.9669876098633
131,50.5919,9.94299030303955
132,50.5954,10.4164180755615
133,50.5984,7.46398448944092
134,50.6017,9.71067333221436
135,50.6065,4.28728103637695
136,50.6124,15.6984453201294
137,50.6207,3.95400047302246
138,50.6243,3.50031971931458
139,50.6269,11.5830097198486
140,50.6311,27.3815059661865
141,50.6363,9.01385021209717
142,50.6406,4.57506275177002
143,50.6434,13.6950016021729
144,50.6476,9.79824638366699
145,50.6521,4.43218755722046
146,50.6554,14.403172492981
147,50.6608,12.4631071090698
148,50.6663,4.61461114883423
149,50.6721,8.29416942596436
150,50.6783,16.298303604126
151,50.6820,13.0239181518555
152,50.6855,4.49072265625
153,50.6900,6.37514877319336
154,50.6937,8.16391086578369
155,50.7002,8.45884990692139
156,50.7045,5.10116004943848
157,50.7089,4.10622882843018
158,50.7123,9.17852973937988
159,50.7162,22.8741645812988
160,50.7242,9.64738178253174
161,50.7279,8.87191295623779
162,50.7319,23.856632232666
163,50.7363,8.80088233947754
164,50.7402,24.9463844299316
165,50.7476,25.9097537994385
166,50.7512,8.90315246582031
167,50.7558,24.3519763946533
168,50.7612,24.513843536377
169,50.7686,8.44882392883301
170,50.7732,10.0315189361572
171,50.7784,10.9669618606567
172,50.7822,8.53772068023682
173,50.7865,23.1667385101318
174,50.7888,7.93142414093018
175,50.7932,10.6117630004883
176,50.7958,16.3209381103516
177,50.8018,24.7657356262207
178,50.8064,4.23019027709961
179,50.8098,22.7398700714111
180,50.8153,15.8785886764526
181,50.8200,4.23268461227417
182,50.8242,31.9534759521484
183,50.8295,4.4084324836731
184,50.8322,7.41915607452393
185,50.8393,16.4662132263184
186,50.8426,16.8173561096191
187,50.8470,27.7729682922363
188,50.8517,20.6238021850586
189,50.8560,13.5137510299683
190,50.8585,10.0688171386719
191,50.8627,5.313889503479
192,50.8672,30.4436283111572
193,50.8755,13.6211471557617
194,50.8835,4.61641407012939
195,50.8876,8.33098602294922
196,50.8930,17.8061580657959
197,50.9016,10.7153978347778
198,50.9065,17.4884700775146
199,50.9096,4.65215539932251
200,50.9148,20.0186080932617
201,50.9198,11.679895401001
202,50.9253,8.75500679016113
203,50.9320,17.5909099578857
204,50.9391,8.81148719787598
205,50.9430,18.7594566345215
206,50.9472,12.0164031982422
207,50.9511,4.74614381790161
208,50.9570,21.0086917877197
209,50.9612,4.26251792907715
210,50.9648,13.0883178710938
211,50.9708,17.7939109802246
212,50.9740,4.36598873138428
213,50.9783,9.42904949188232
214,50.9820,3.85254168510437
215,50.9859,9.89545249938965
216,50.9892,4.5163106918335
217,50.9927,5.29791688919067
218,51.0002,12.7858095169067
219,51.0036,22.484655380249
220,51.0079,8.50339698791504
221,51.0101,10.2681407928467
222,51.0140,23.8455486297607
223,51.0242,13.6309385299683
224,51.0287,5.13925075531006
225,51.0322,9.50017833709717
226,51.0384,4.19131374359131
227,51.0408,19.0674629211426
228,51.0460,10.5332517623901
229,51.0502,8.98237991333008
230,51.0551,5.01500034332275
231,51.0608,32.0997314453125
232,51.0662,10.7549257278442
233,51.0709,23.8906078338623
234,51.0741,4.34829998016357
235,51.0769,6.53537368774414
236,51.0824,32.1200637817383
237,51.0866,13.7786655426025
238,51.0933,13.9236087799072
239,51.0984,19.0546493530273
240,51.1017,5.19550323486328
241,51.1063,20.4815883636475
242,51.1116,6.16333293914795
243,51.1148,9.16364860534668
244,51.1200,12.4504566192627
245,51.1220,17.7628231048584
246,51.1280,4.91987562179565
247,51.1314,13.2498321533203
248,51.1354,5.36812400817871
249,51.1421,10.3817176818848
250,51.1476,14.1781797409058
251,51.1500,10.2869892120361
252,51.1574,16.8032093048096
253,51.1634,8.49926948547363
254,51.1662,4.13165330886841
255,51.1698,10.3712339401245
256,51.1737,4.7692403793335
257,51.1819,18.7780170440674
258,51.1856,4.11531257629395
259,51.1913,3.89719820022583
260,51.1962,29.6015586853027
261,51.1992,4.51133441925049
262,51.2031,9.37920379638672
263,51.2062,5.06572437286377
264,51.2127,13.6559629440308
265,51.2170,3.63889002799988
266,51.2201,4.18426561355591
267,51.2248,24.8700408935547
268,51.2277,5.30176687240601
269,51.2314,3.6875
270,51.2345,18.6817989349365
271,51.2383,26.5756015777588
272,51.2414,4.07050037384033
273,51.2457,5.66814279556274
274,51.2486,6.78593730926514
275,51.2530,14.2782039642334
276,51.2587,18.7115745544434
277,51.2650,18.9411773681641
278,51.2693,14.6374263763428
279,51.2740,4.08667469024658
280,51.2775,23.8416290283203
281,51.2807,4.6507248878479
282,51.2834,25.0340576171875
283,51.2907,19.6054935455322
284,51.2986,14.9397401809692
285,51.3058,13.0894956588745
286,51.3084,11.2334289550781
287,51.3123,11.1211261749268
288,51.3193,26.5692138671875
289,51.3260,7.83771514892578
290,51.3333,22.5899848937988
291,51.3380,9.23161792755127
292,51.3460,17.9116668701172
293,51.3498,4.86561346054077
294,51.3532,12.7426424026489
295,51.3602,20.4214057922363
296,51.3675,8.62097644805908
297,51.3719,15.1918888092041
298,51.3762,21.5465869903564
299,51.3802,4.54508924484253
300,51.3833,14.7684602737427
301,51.3882,28.4523315429688
302,51.3934,5.06276226043701
303,51.3973,3.97867131233215
304,51.4021,5.60948467254639
305,51.4054,18.1259727478027
306,51.4107,14.4009828567505
307,51.4151,15.2376527786255
308,51.4179,5.8775806427002
309,51.4251,14.0562229156494
310,51.4288,3.75529909133911
311,51.4345,19.4120826721191
312,51.4393,4.08472776412964
313,51.4435,9.88195037841797
314,51.4474,9.31157684326172
315,51.4544,4.86183071136475
316,51.4571,18.3499050140381
317,51.4649,13.4386167526245
318,51.4690,3.51829648017883
319,51.4742,11.3774356842041
320,51.4784,14.9257965087891
321,51.4846,9.76938152313232
322,51.4885,13.1051816940308
323,51.4940,4.96329641342163
324,51.4989,14.3194065093994
325,51.5038,8.64284706115723
326,51.5113,11.3768815994263
327,51.5143,5.48504304885864
328,51.5176,23.2606468200684
329,51.5227,9.26964378356934
330,51.5315,19.7366237640381
331,51.5360,4.40848207473755
332,51.5406,4.16172885894775
333,51.5504,13.9237642288208
334,51.5526,12.7250623703003
335,51.5567,19.2177486419678
336,51.5624,4.28181457519531
337,51.5654,5.91871500015259
338,51.5730,19.9664268493652
339,51.5832,11.0237474441528
340,51.5909,20.888011932373
341,51.5982,2.99814081192017
342,51.6024,18.5284595489502
343,51.6076,25.1799907684326
344,51.6125,14.5497922897339
345,51.6153,5.22640609741211
346,51.6185,5.17374134063721
347,51.6234,16.0038642883301
348,51.6284,15.3318891525269
349,51.6328,4.03431987762451
350,51.6387,4.25937509536743
351,51.6439,18.2916526794434
352,51.6490,13.6088285446167
353,51.6536,5.20020246505737
354,51.6587,15.7135953903198
355,51.6637,17.4127540588379
356,51.6655,9.28432464599609
357,51.6682,4.58611679077148
358,51.6746,13.6127042770386
359,51.6782,16.526216506958
360,51.6808,10.4835453033447
361,51.6845,4.71749973297119
362,51.6893,9.19551086425781
363,51.6913,14.686803817749
364,51.6948,5.10621500015259
365,51.7013,22.1312160491943
366,51.7069,18.8359031677246
367,51.7123,20.6509418487549
368,51.7154,13.6264095306396
369,51.7225,13.8406848907471
370,51.7284,9.12961292266846
371,51.7333,3.66256523132324
372,51.7368,12.8897953033447
373,51.7407,6.20219755172729
374,51.7449,3.7051956653595
375,51.7490,32.1091575622559
376,51.7571,10.1103773117065
377,51.7623,17.7901058197021
378,51.7673,9.35991668701172
379,51.7731,4.56700038909912
380,51.7758,14.7565336227417
381,51.7835,4.77122640609741
382,51.7863,19.5444145202637
383,51.7914,23.5021324157715
384,51.7950,4.01329374313354
385,51.7986,24.7112121582031
386,51.8020,6.16106843948364
387,51.8075,23.5391502380371
388,51.8114,7.70580959320068
389,51.8142,4.79495477676392
390,51.8249,7.37380456924438
391,51.8276,5.39298248291016
392,51.8312,9.9011116027832
393,51.8342,14.424825668335
394,51.8384,23.0880126953125
395,51.8530,19.0301914215088
396,51.8600,5.31253814697266
397,51.8631,20.3561973571777
398,51.8680,19.9538764953613
399,51.8737,4.27755117416382
400,51.8786,18.0289402008057
401,51.8851,7.65421390533447
402,51.8896,20.0751552581787
403,51.8951,10.7556285858154
404,51.9036,6.81527853012085
405,51.9071,7.75627899169922
406,51.9155,11.619701385498
407,51.9217,20.627477645874
408,51.9275,16.4723052978516
409,51.9302,5.89730930328369
410,51.9334,14.9492740631104
411,51.9392,14.4120178222656
412,51.9421,13.9905881881714
413,51.9487,21.2908668518066
414,51.9558,9.49637126922607
415,51.9593,4.80242586135864
416,51.9646,6.58359146118164
417,51.9699,21.6531829833984
418,51.9751,6.56685543060303
419,51.9816,8.56245040893555
420,51.9848,9.45148944854736
421,51.9911,14.6991863250732
422,51.9949,9.24948883056641
423,51.9989,13.1686506271362
424,52.0019,5.30850124359131
425,52.0052,3.9980685710907
426,52.0128,9.92600059509277
427,52.0154,9.35915660858154
428,52.0186,4.41477298736572
429,52.0235,18.8710403442383
430,52.0314,11.0330600738525
431,52.0379,22.2379913330078
432,52.0427,4.58897113800049
433,52.0458,3.81574058532715
434,52.0495,4.55137062072754
435,52.0678,14.4349088668823
436,52.0716,4.83026027679443
437,52.0751,3.82561993598938
438,52.0786,16.894344329834
439,52.0821,9.09707927703857
440,52.0880,13.8195056915283
441,52.0924,8.31172847747803
442,52.0992,25.3151988983154
443,52.1084,15.3868455886841
444,52.1194,13.965087890625
445,52.1226,8.73676586151123
446,52.1269,9.91869926452637
447,52.1371,14.343391418457
448,52.1410,19.3761138916016
449,52.1466,12.8681468963623
450,52.1491,4.24006032943726
451,52.1549,8.6298303604126
452,52.1657,13.0540714263916
453,52.1700,20.7008228302002
454,52.1752,5.08256053924561
455,52.1808,18.5193157196045
456,52.1849,4.56812524795532
457,52.1897,13.9924287796021
458,52.1962,16.9786357879639
459,52.2062,21.1381034851074
460,52.2154,11.0633363723755
461,52.2225,4.67561721801758
462,52.2256,4.96479368209839
463,52.2327,23.3680686950684
464,52.2386,4.35818004608154
465,52.2441,9.60815620422363
466,52.2493,8.44718360900879
467,52.2560,17.6494541168213
468,52.2612,13.6829319000244
469,52.2734,13.1214733123779
470,52.2811,11.0529880523682
471,52.2846,5.60914134979248
472,52.2926,10.6744232177734
473,52.2991,17.8027305603027
474,52.3116,10.0575275421143
475,52.3165,4.45612478256226
476,52.3230,10.3487577438354
477,52.3310,17.4795036315918
478,52.3371,4.5500283241272
479,52.3402,4.38204145431519
480,52.3463,9.39485645294189
481,52.3489,7.68531894683838
482,52.3523,4.744460105896
483,52.3616,8.31900215148926
484,52.3661,19.7262687683105
485,52.3728,14.4696989059448
486,52.3773,7.93927478790283
487,52.3820,4.69961357116699
488,52.3848,12.9132900238037
489,52.3896,17.7684936523438
490,52.3942,24.2720966339111
491,52.4003,18.8202533721924
492,52.4055,14.7273225784302
493,52.4154,8.12910175323486
494,52.4208,9.96570014953613
495,52.4258,18.4884929656982
496,52.4289,4.44107866287231
497,52.4329,5.4320011138916
498,52.4366,13.3034362792969
499,52.4428,4.39475345611572
500,52.4474,8.7470531463623
501,52.4515,12.39430809021
502,52.4567,4.29005336761475
503,52.4597,13.7158908843994
504,52.4644,18.3705635070801
505,52.4710,19.091796875
506,52.4767,4.01707935333252
507,52.4872,6.99611377716064
508,52.4907,5.35257577896118
509,52.4971,17.2282562255859
510,52.5020,6.72730398178101
511,52.5082,13.5154619216919
512,52.5123,3.52714681625366
513,52.5157,4.10560941696167
514,52.5216,14.8579254150391
515,52.5250,7.65340900421143
516,52.5299,9.16925430297852
517,52.5328,4.20629119873047
518,52.5476,19.0558338165283
519,52.5528,9.61096477508545
520,52.5587,13.0897827148438
521,52.5620,4.76272869110107
522,52.5659,20.5251884460449
523,52.5706,6.3010721206665
524,52.5735,29.8957633972168
525,52.5776,5.39138317108154
526,52.5810,19.9751129150391
527,52.5852,26.4559116363525
528,52.5927,11.3153228759766
529,52.5969,8.91799163818359
530,52.6062,3.77176547050476
531,52.6093,4.03617000579834
532,52.6124,10.6895370483398
533,52.6176,9.51101970672607
534,52.6317,9.47641086578369
535,52.6358,3.03151679039001
536,52.6425,13.9440975189209
537,52.6479,22.2600898742676
538,52.6509,9.96645164489746
539,52.6590,9.56849384307861
540,52.6663,9.38973045349121
541,52.6744,5.44259929656982
542,52.6787,16.2791862487793
543,52.6809,3.7964916229248
544,52.6878,7.68993997573853
545,52.6917,20.3446846008301
546,52.6961,13.845666885376
547,52.7006,25.2175102233887
548,52.7051,9.12155151367188
549,52.7101,9.76648712158203
550,52.7140,5.15478420257568
551,52.7186,7.58298778533936
552,52.7258,12.1862850189209
553,52.7315,4.51590919494629
554,52.7377,18.4027194976807
555,52.7435,15.3381757736206
556,52.7479,15.3706922531128
557,52.7525,14.5225200653076
558,52.7563,24.305212020874
559,52.7634,14.0686159133911
560,52.7661,8.53639984130859
561,52.7713,11.4551525115967
562,52.7758,20.8103904724121
563,52.7852,9.13605690002441
564,52.7910,26.3351497650146
565,52.7948,17.3006629943848
566,52.8009,19.2647171020508
567,52.8085,9.125807762146
568,52.8125,25.9629707336426
569,52.8171,4.29622602462769
570,52.8203,20.0118865966797
571,52.8289,27.0541172027588
572,52.8345,8.89587593078613
573,52.8374,4.69971990585327
574,52.8412,9.15984058380127
575,52.8470,13.2130947113037
576,52.8550,4.11281967163086
577,52.8621,23.0353736877441
578,52.8672,20.869909286499
579,52.8724,9.56666469573975
580,52.8769,11.3624849319458
581,52.8812,10.5072765350342
582,52.8840,14.0162658691406
583,52.8906,19.2776679992676
584,52.8992,4.06614589691162
585,52.9024,3.60408163070679
586,52.9054,4.42506885528564
587,52.9100,18.433910369873
588,52.9176,14.0562114715576
589,52.9238,16.8794765472412
590,52.9296,9.95066928863525
591,52.9320,8.49651908874512
592,52.9370,9.10684776306152
593,52.9466,20.7996616363525
594,52.9516,19.1487102508545
595,52.9619,24.8665885925293
596,52.9684,4.458580493927
597,52.9780,19.6493988037109
598,52.9823,13.6108016967773
599,52.9885,7.44326019287109
600,52.9918,6.2894229888916
601,52.9951,9.94522380828857
602,53.0015,13.4668254852295
603,53.0061,23.7928199768066
604,53.0091,4.40108203887939
605,53.0138,10.6917514801025
606,53.0167,11.7481136322021
607,53.0245,24.4311180114746
608,53.0297,16.4478664398193
609,53.0370,13.386981010437
610,53.0411,14.6956300735474
611,53.0444,16.8834075927734
612,53.0479,9.04604148864746
613,53.0508,4.75024557113647
614,53.0540,6.04949045181274
615,53.0599,13.2161436080933
616,53.0644,4.80890035629272
617,53.0729,13.1582689285278
618,53.0787,8.81125640869141
619,53.0831,16.7977447509766
620,53.0897,7.81119441986084
621,53.0922,4.37377786636353
622,53.0950,8.39490795135498
623,53.0987,5.23116779327393
624,53.1067,12.7158002853394
625,53.1118,8.57119464874268
626,53.1157,9.23041343688965
627,53.1183,11.780647277832
628,53.1226,8.74931812286377
629,53.1272,8.91023921966553
630,53.1342,4.42120361328125
631,53.1386,6.87729358673096
632,53.1517,14.2295894622803
633,53.1555,11.7905569076538
634,53.1598,20.0542984008789
635,53.1658,32.8368225097656
636,53.1714,8.61072540283203
637,53.1796,9.92105102539063
638,53.1942,19.92236328125
639,53.1983,5.39415550231934
640,53.2027,24.1166095733643
641,53.2080,13.5290498733521
642,53.2111,5.27915525436401
643,53.2162,5.26858711242676
644,53.2215,11.3972873687744
645,53.2277,12.4766130447388
646,53.2307,8.48129749298096
647,53.2371,12.8691911697388
648,53.2427,6.10357141494751
649,53.2474,9.00153636932373
650,53.2552,10.117094039917
651,53.2637,14.5874967575073
652,53.2675,13.4976100921631
653,53.2711,15.0179471969604
654,53.2762,4.2500147819519
655,53.2810,4.69255590438843
656,53.2855,4.82506275177002
657,53.2917,28.2143859863281
658,53.2968,13.5135974884033
659,53.3012,8.47489452362061
660,53.3073,8.52196311950684
661,53.3121,16.0945472717285
662,53.3163,13.7852325439453
663,53.3225,10.1009159088135
664,53.3286,4.96034097671509
665,53.3317,13.5879697799683
666,53.3400,13.883825302124
667,53.3446,15.3760547637939
668,53.3503,8.93609619140625
