#"-ESI Scan (rt: 0.050-0.989 min, 79 scans) Frag=175.0V wash4B.d "
#Point,X(Thompsons),Y(Counts)
0,50.0018,15.4631004333496
1,50.0038,10.6121263504028
2,50.0126,42.120418548584
3,50.0189,22.7874717712402
4,50.0222,4.71044301986694
5,50.0276,20.685640335083
6,50.0316,5.28882122039795
7,50.0364,3.85601258277893
8,50.0415,13.7449131011963
9,50.0465,9.02266979217529
10,50.0501,20.2403392791748
11,50.0538,23.7394046783447
12,50.0573,18.785026550293
13,50.0619,21.8367366790771
14,50.0666,17.38938331604
15,50.0719,41.7388534545898
16,50.0753,5.17541360855103
17,50.0785,36.1069374084473
18,50.0820,11.0952167510986
19,50.0868,25.5878448486328
20,50.0897,5.10052108764648
21,50.0999,10.1264219284058
22,50.1066,9.5917444229126
23,50.1109,30.0702934265137
24,50.1163,19.1661357879639
25,50.1211,35.7438850402832
26,50.1262,4.11239671707153
27,50.1317,9.83706378936768
28,50.1356,18.829195022583
29,50.1412,20.1496467590332
30,50.1454,13.5929079055786
31,50.1541,21.871114730835
32,50.1581,6.3909158706665
33,50.1616,13.6032218933105
34,50.1658,13.2790555953979
35,50.1685,9.27994346618652
36,50.1718,21.6749134063721
37,50.1749,4.91354179382324
38,50.1794,19.7821102142334
39,50.1837,5.29278755187988
40,50.1878,14.7365093231201
41,50.1933,5.08915710449219
42,50.1956,9.58161735534668
43,50.2021,15.5384922027588
44,50.2074,10.3045244216919
45,50.2131,14.9406509399414
46,50.2158,10.6840715408325
47,50.2190,10.9343366622925
48,50.2221,21.0859985351563
49,50.2280,27.2973747253418
50,50.2365,14.6867122650146
51,50.2407,34.1919021606445
52,50.2430,10.1396913528442
53,50.2471,17.1137790679932
54,50.2545,10.4389896392822
55,50.2580,4.85523080825806
56,50.2613,18.6611480712891
57,50.2674,15.427960395813
58,50.2738,5.18636274337769
59,50.2767,17.0178089141846
60,50.2796,10.1836175918579
61,50.2824,6.57230806350708
62,50.2877,15.0853023529053
63,50.2935,16.5093307495117
64,50.2981,4.75319910049438
65,50.3008,5.78064918518066
66,50.3040,4.96331262588501
67,50.3066,15.4770040512085
68,50.3120,9.71304225921631
69,50.3215,30.2109909057617
70,50.3277,5.2428879737854
71,50.3307,24.1239833831787
72,50.3350,10.3375225067139
73,50.3398,14.1874370574951
74,50.3452,4.78369808197021
75,50.3506,10.3003396987915
76,50.3557,27.6271781921387
77,50.3615,4.912024974823
78,50.3682,16.1279983520508
79,50.3725,22.0422801971436
80,50.3842,5.0513653755188
81,50.3911,7.75192928314209
82,50.3939,19.8853740692139
83,50.3980,19.6388664245605
84,50.4022,20.7447319030762
85,50.4076,15.257755279541
86,50.4107,22.2760334014893
87,50.4155,19.4008693695068
88,50.4244,12.5334815979004
89,50.4295,7.11388158798218
90,50.4324,18.0444736480713
91,50.4384,9.90658855438232
92,50.4413,14.0364665985107
93,50.4456,9.89297771453857
94,50.4509,4.41698932647705
95,50.4549,10.8555784225464
96,50.4593,26.2745571136475
97,50.4625,5.78706026077271
98,50.4661,14.1805791854858
99,50.4721,7.07872533798218
100,50.4773,29.8818264007568
101,50.4823,4.4818286895752
102,50.4854,9.76204776763916
103,50.4904,16.0134239196777
104,50.4934,17.6837615966797
105,50.4975,5.6704216003418
106,50.5017,5.01215219497681
107,50.5068,26.7269763946533
108,50.5101,10.2688465118408
109,50.5163,6.99882793426514
110,50.5217,15.971076965332
111,50.5270,10.369499206543
112,50.5300,6.106360912323
113,50.5370,6.91733121871948
114,50.5419,9.987624168396
115,50.5468,16.0060958862305
116,50.5515,24.0521869659424
117,50.5577,9.66076946258545
118,50.5634,8.91702747344971
119,50.5701,17.174654006958
120,50.5814,15.7940082550049
121,50.5867,25.0280818939209
122,50.5922,4.8535795211792
123,50.5964,15.750298500061
124,50.6008,10.6984033584595
125,50.6051,23.6990699768066
126,50.6143,16.2679252624512
127,50.6198,4.64749908447266
128,50.6270,10.0954895019531
129,50.6402,10.6463451385498
130,50.6454,10.4889945983887
131,50.6502,5.14491891860962
132,50.6534,14.8442649841309
133,50.6581,9.69028949737549
134,50.6648,25.5942268371582
135,50.6691,5.41023921966553
136,50.6740,44.008472442627
137,50.6777,18.8473682403564
138,50.6834,9.54705238342285
139,50.6866,27.5973587036133
140,50.6912,15.1006908416748
141,50.6984,32.6574440002441
142,50.7049,9.39351558685303
143,50.7079,15.8927946090698
144,50.7115,25.0475120544434
145,50.7158,9.75848770141602
146,50.7202,11.4319314956665
147,50.7242,23.8197231292725
148,50.7281,6.26583099365234
149,50.7330,4.46383905410767
150,50.7360,5.21314477920532
151,50.7398,4.7154483795166
152,50.7464,21.3419895172119
153,50.7510,5.7318286895752
154,50.7591,4.94655513763428
155,50.7628,6.72973346710205
156,50.7657,10.7579793930054
157,50.7710,22.1532611846924
158,50.7784,10.1261405944824
159,50.7819,19.9881439208984
160,50.7906,10.5813608169556
161,50.7942,39.031665802002
162,50.7990,10.7173681259155
163,50.8025,11.0866098403931
164,50.8070,9.19924068450928
165,50.8103,17.6608924865723
166,50.8147,25.3535442352295
167,50.8188,13.7662105560303
168,50.8240,10.3570575714111
169,50.8292,16.4236183166504
170,50.8337,9.39598083496094
171,50.8386,15.0157146453857
172,50.8436,17.6841163635254
173,50.8470,10.9261178970337
174,50.8528,5.33755254745483
175,50.8577,25.3589553833008
176,50.8626,4.76045894622803
177,50.8758,16.142541885376
178,50.8810,11.8191385269165
179,50.8841,26.1842861175537
180,50.8887,24.5459842681885
181,50.8930,5.58455419540405
182,50.9006,21.508638381958
183,50.9033,12.9639692306519
184,50.9073,31.9223728179932
185,50.9109,8.49418449401855
186,50.9170,18.0514392852783
187,50.9204,26.3040752410889
188,50.9245,8.2788028717041
189,50.9324,17.0146923065186
190,50.9367,35.2468795776367
191,50.9434,9.95796775817871
192,50.9467,9.87782192230225
193,50.9508,14.9231281280518
194,50.9529,15.7935466766357
195,50.9573,4.57634973526001
196,50.9607,9.43362712860107
197,50.9664,9.66622161865234
198,50.9695,5.47201251983643
199,50.9727,25.6053581237793
200,50.9811,5.42498683929443
201,50.9847,14.3273153305054
202,50.9886,14.3065204620361
203,50.9967,18.7880420684814
204,51.0015,14.081166267395
205,51.0039,9.64751148223877
206,51.0101,10.1626892089844
207,51.0133,16.7125091552734
208,51.0177,11.2675065994263
209,51.0232,43.6172218322754
210,51.0278,35.8332481384277
211,51.0348,10.5127382278442
212,51.0434,9.83760452270508
213,51.0484,6.52088499069214
214,51.0518,14.5310974121094
215,51.0569,6.07043886184692
216,51.0619,9.29893589019775
217,51.0663,26.4266128540039
218,51.0699,21.4989452362061
219,51.0791,27.330696105957
220,51.0853,4.83674716949463
221,51.0952,11.2322940826416
222,51.1009,9.04164600372314
223,51.1059,15.538104057312
224,51.1093,14.7846651077271
225,51.1121,4.9068398475647
226,51.1153,4.74770498275757
227,51.1184,17.5408496856689
228,51.1212,7.81685447692871
229,51.1247,15.7038669586182
230,51.1270,5.36745023727417
231,51.1305,21.6208152770996
232,51.1343,5.58236169815063
233,51.1376,9.60819625854492
234,51.1413,5.17536115646362
235,51.1450,4.98401355743408
236,51.1479,25.1916637420654
237,51.1516,14.1305475234985
238,51.1578,7.29398107528687
239,51.1609,6.54454708099365
240,51.1661,32.5149230957031
241,51.1708,32.3094329833984
242,51.1789,17.4585494995117
243,51.1821,15.1927242279053
244,51.1893,22.6700553894043
245,51.1933,18.4178581237793
246,51.1972,15.7959032058716
247,51.2040,5.17496824264526
248,51.2090,22.779541015625
249,51.2123,10.9381666183472
250,51.2176,6.61084699630737
251,51.2215,4.13946628570557
252,51.2249,5.59765815734863
253,51.2290,8.89274406433105
254,51.2328,12.1364269256592
255,51.2356,5.43527507781982
256,51.2380,8.51506233215332
257,51.2424,9.83495998382568
258,51.2516,7.51260662078857
259,51.2552,5.4601411819458
260,51.2581,4.24582815170288
261,51.2613,36.5786552429199
262,51.2649,4.47838449478149
263,51.2702,20.8111267089844
264,51.2733,5.71048736572266
265,51.2760,22.7718944549561
266,51.2855,23.8399600982666
267,51.2926,25.4135093688965
268,51.2955,4.15692377090454
269,51.2995,15.8931741714478
270,51.3024,9.29053783416748
271,51.3073,16.4481334686279
272,51.3120,4.78719043731689
273,51.3167,20.4782257080078
274,51.3215,22.8806076049805
275,51.3248,8.08021545410156
276,51.3313,16.5632438659668
277,51.3357,22.059757232666
278,51.3378,9.89109897613525
279,51.3412,10.1988792419434
280,51.3464,19.5929985046387
281,51.3503,15.6252241134644
282,51.3542,14.221492767334
283,51.3573,5.35931253433228
284,51.3633,12.8506288528442
285,51.3697,18.9272899627686
286,51.3737,5.54025506973267
287,51.3782,4.4335355758667
288,51.3802,15.27991771698
289,51.3855,21.4658889770508
290,51.3905,9.63688468933105
291,51.3956,17.5120887756348
292,51.4016,12.8006238937378
293,51.4087,9.42023754119873
294,51.4121,9.84405899047852
295,51.4187,37.6716957092285
296,51.4242,26.0404720306396
297,51.4277,16.6465396881104
298,51.4313,8.88860034942627
299,51.4344,6.60458421707153
300,51.4377,11.6864624023438
301,51.4408,5.09283638000488
302,51.4450,16.5683460235596
303,51.4504,6.87233066558838
304,51.4545,15.5512666702271
305,51.4588,4.37715482711792
306,51.4617,4.49651908874512
307,51.4663,11.0979528427124
308,51.4697,9.32530975341797
309,51.4733,16.4979667663574
310,51.4776,6.28350305557251
311,51.4799,10.4691791534424
312,51.4828,10.5096340179443
313,51.4859,6.09612560272217
314,51.4910,36.2779083251953
315,51.4972,35.0999488830566
316,51.5016,26.214485168457
317,51.5058,14.4605045318604
318,51.5114,27.4055862426758
319,51.5150,16.7604675292969
320,51.5185,14.6701135635376
321,51.5243,44.3081321716309
322,51.5293,21.0263690948486
323,51.5331,14.7364549636841
324,51.5379,29.1972942352295
325,51.5423,11.489652633667
326,51.5452,5.70493459701538
327,51.5490,10.8449611663818
328,51.5514,4.25037002563477
329,51.5559,11.2669734954834
330,51.5595,5.70118522644043
331,51.5626,4.81357049942017
332,51.5678,11.1607789993286
333,51.5740,9.75069904327393
334,51.5821,20.2104549407959
335,51.5861,11.7062864303589
336,51.5905,13.9820861816406
337,51.5950,9.53341007232666
338,51.6024,25.6603736877441
339,51.6083,4.53760957717896
340,51.6121,9.68584728240967
341,51.6213,14.1219730377197
342,51.6244,4.65877771377563
343,51.6272,20.621072769165
344,51.6309,4.57419109344482
345,51.6341,16.4619026184082
346,51.6402,12.2463483810425
347,51.6444,19.3512840270996
348,51.6513,5.12842321395874
349,51.6562,15.565634727478
350,51.6627,10.9841585159302
351,51.6658,11.263388633728
352,51.6705,11.0107221603394
353,51.6758,11.0534362792969
354,51.6785,5.55768775939941
355,51.6859,5.49766111373901
356,51.6891,13.8490219116211
357,51.6957,10.9530420303345
358,51.7054,10.6807537078857
359,51.7088,10.5548181533813
360,51.7120,9.60473823547363
361,51.7161,5.53840446472168
362,51.7210,19.5880718231201
363,51.7247,9.20361804962158
364,51.7298,19.9290142059326
365,51.7343,4.74856042861938
366,51.7395,18.208122253418
367,51.7429,10.2199926376343
368,51.7460,10.2325592041016
369,51.7503,20.9623966217041
370,51.7563,5.09215211868286
371,51.7591,4.77565765380859
372,51.7644,26.4920234680176
373,51.7680,4.68793964385986
374,51.7713,23.741584777832
375,51.7744,20.4071807861328
376,51.7788,26.4739952087402
377,51.7830,6.12585496902466
378,51.7898,25.0791168212891
379,51.7955,15.001163482666
380,51.8026,35.4047927856445
381,51.8109,5.14426374435425
382,51.8201,30.7149047851563
383,51.8240,13.536150932312
384,51.8285,16.3799095153809
385,51.8342,14.2239360809326
386,51.8386,9.17882251739502
387,51.8428,11.3377285003662
388,51.8460,19.8921012878418
389,51.8499,5.75164556503296
390,51.8528,13.2286605834961
391,51.8586,29.2026023864746
392,51.8628,4.97356653213501
393,51.8666,50.3139762878418
394,51.8700,11.3034887313843
395,51.8752,4.73885631561279
396,51.8818,23.7134208679199
397,51.8867,19.8973598480225
398,51.8919,6.20164251327515
399,51.8958,15.3516569137573
400,51.8981,7.39335775375366
401,51.9024,15.0533866882324
402,51.9069,17.5560340881348
403,51.9130,26.2331237792969
404,51.9166,10.926661491394
405,51.9212,30.5955924987793
406,51.9245,5.61418962478638
407,51.9296,11.3380851745605
408,51.9371,23.8097553253174
409,51.9416,15.8682069778442
410,51.9450,9.87580680847168
411,51.9494,32.8203506469727
412,51.9540,9.04250240325928
413,51.9582,4.15258693695068
414,51.9614,24.4440612792969
415,51.9654,9.98181343078613
416,51.9717,19.3413619995117
417,51.9765,10.561653137207
418,51.9805,5.03235006332397
419,51.9846,5.27261257171631
420,51.9904,10.2067556381226
421,51.9935,21.8309688568115
422,51.9969,20.498218536377
423,52.0011,4.50812482833862
424,52.0093,35.776683807373
425,52.0149,14.5725173950195
426,52.0219,10.92249584198
427,52.0246,19.2767810821533
428,52.0293,19.6099014282227
429,52.0341,11.8336935043335
430,52.0423,10.9743556976318
431,52.0488,18.1080265045166
432,52.0538,29.943078994751
433,52.0589,20.7679023742676
434,52.0639,14.3014345169067
435,52.0708,10.3957347869873
436,52.0766,11.3077201843262
437,52.0801,4.18075942993164
438,52.0862,14.6435470581055
439,52.0920,9.45315170288086
440,52.0947,5.40883111953735
441,52.0984,22.3278503417969
442,52.1015,10.0428171157837
443,52.1059,20.0886516571045
444,52.1087,5.31822681427002
445,52.1135,7.15448236465454
446,52.1164,9.91910648345947
447,52.1232,13.3919086456299
448,52.1271,26.7384510040283
449,52.1320,9.0592565536499
450,52.1361,5.60414266586304
451,52.1394,12.8942308425903
452,52.1431,17.7588653564453
453,52.1501,16.8357028961182
454,52.1536,17.9937953948975
455,52.1571,16.6303272247314
456,52.1615,4.24135732650757
457,52.1683,18.6592063903809
458,52.1740,17.6023101806641
459,52.1797,27.4400615692139
460,52.1832,9.03922748565674
461,52.1874,5.73340225219727
462,52.1929,10.1194725036621
463,52.2008,6.27147531509399
464,52.2036,15.1130666732788
465,52.2112,5.08860778808594
466,52.2168,21.7595672607422
467,52.2214,5.8006329536438
468,52.2245,18.8902053833008
469,52.2273,5.56470155715942
470,52.2304,16.9595832824707
471,52.2361,25.5781230926514
472,52.2420,4.81687498092651
473,52.2445,22.5731372833252
474,52.2483,14.2699394226074
475,52.2557,22.1975898742676
476,52.2589,9.37360191345215
477,52.2637,14.0103416442871
478,52.2681,13.6545162200928
479,52.2745,9.53645896911621
480,52.2803,24.47536277771
481,52.2836,5.75469064712524
482,52.2868,19.094310760498
483,52.2893,12.071084022522
484,52.2939,26.2670612335205
485,52.2997,10.0412549972534
486,52.3033,9.75799083709717
487,52.3066,6.34384107589722
488,52.3105,10.4238147735596
489,52.3170,14.6878929138184
490,52.3214,9.73357486724854
491,52.3270,9.26355361938477
492,52.3335,10.7028198242188
493,52.3399,19.5038967132568
494,52.3437,11.6589527130127
495,52.3479,5.73699045181274
496,52.3510,16.1148643493652
497,52.3541,26.9542770385742
498,52.3580,28.4140071868896
499,52.3663,21.5590019226074
500,52.3721,30.8500785827637
501,52.3771,18.1449661254883
502,52.3794,25.0874977111816
503,52.3858,16.8203258514404
504,52.3900,10.2164888381958
505,52.3928,4.42616033554077
506,52.3956,6.81789827346802
507,52.4007,17.9153442382813
508,52.4101,5.17476463317871
509,52.4148,26.9186420440674
510,52.4194,11.1098690032959
511,52.4237,17.5354652404785
512,52.4282,9.21410942077637
513,52.4313,5.65438175201416
514,52.4362,5.11886930465698
515,52.4393,10.452262878418
516,52.4446,5.15396642684937
517,52.4490,14.300705909729
518,52.4539,10.477068901062
519,52.4582,15.9536752700806
520,52.4659,10.7883396148682
521,52.4708,15.2228326797485
522,52.4748,19.173791885376
523,52.4802,5.21196413040161
524,52.4860,12.3504095077515
525,52.4889,5.57911396026611
526,52.4919,9.66621971130371
527,52.4980,20.7435722351074
528,52.5031,5.13943719863892
529,52.5061,11.6372375488281
530,52.5123,16.3005256652832
531,52.5174,21.1551647186279
532,52.5203,9.3523416519165
533,52.5240,13.9315404891968
534,52.5272,25.0459651947021
535,52.5337,5.4741268157959
536,52.5385,20.2115497589111
537,52.5431,16.3660202026367
538,52.5488,24.0452003479004
539,52.5582,5.46187257766724
540,52.5622,5.49675893783569
541,52.5674,10.5411291122437
542,52.5709,4.85828971862793
543,52.5759,14.2816553115845
544,52.5824,10.838451385498
545,52.5866,27.6204299926758
546,52.5891,11.2062091827393
547,52.5979,5.2630786895752
548,52.6057,10.3679914474487
549,52.6099,24.3966407775879
550,52.6142,17.1205825805664
551,52.6168,10.0192928314209
552,52.6214,9.37530040740967
553,52.6247,10.7381420135498
554,52.6287,4.9286208152771
555,52.6322,4.87634325027466
556,52.6383,14.0260725021362
557,52.6451,10.8674192428589
558,52.6550,25.351110458374
559,52.6610,15.9743099212646
560,52.6673,19.4026260375977
561,52.6703,7.35707950592041
562,52.6735,15.6711921691895
563,52.6811,12.9991931915283
564,52.6923,5.46088600158691
565,52.6968,14.2626085281372
566,52.7008,15.8766965866089
567,52.7065,15.5551986694336
568,52.7095,8.45985889434814
569,52.7126,5.77591896057129
570,52.7154,4.5864429473877
571,52.7194,9.8816089630127
572,52.7259,19.7229690551758
573,52.7294,7.68194675445557
574,52.7338,10.5786972045898
575,52.7393,8.87789535522461
576,52.7495,6.27698421478271
577,52.7544,18.0861797332764
578,52.7591,4.76637172698975
579,52.7641,16.8692646026611
580,52.7757,5.0820255279541
581,52.7805,18.0730667114258
582,52.7856,10.3309545516968
583,52.7898,4.45166730880737
584,52.7954,5.48449087142944
585,52.8004,21.3269844055176
586,52.8063,15.1927289962769
587,52.8125,19.3103542327881
588,52.8169,4.99327516555786
589,52.8216,5.48820495605469
590,52.8267,4.94778490066528
591,52.8288,10.9035081863403
592,52.8352,19.4400196075439
593,52.8395,4.21108102798462
594,52.8440,10.3176641464233
595,52.8482,4.25640201568604
596,52.8537,10.5419549942017
597,52.8609,15.1383724212646
598,52.8650,12.1071062088013
599,52.8692,19.6213283538818
600,52.8762,10.1600942611694
601,52.8831,20.4909915924072
602,52.8924,10.1661882400513
603,52.8963,5.01234722137451
604,52.9004,9.66390514373779
605,52.9034,11.5435342788696
606,52.9073,4.9545373916626
607,52.9102,13.7326011657715
608,52.9172,24.4776401519775
609,52.9219,6.09171628952026
610,52.9272,10.9928245544434
611,52.9310,15.143177986145
612,52.9360,13.8276042938232
613,52.9401,5.65869474411011
614,52.9469,26.1508197784424
615,52.9545,11.1675472259521
616,52.9577,4.70543050765991
617,52.9615,34.034912109375
618,52.9689,14.3448314666748
619,52.9732,4.80728244781494
620,52.9771,10.1298809051514
621,52.9823,20.3586025238037
622,52.9869,7.80424404144287
623,52.9893,9.073561668396
624,52.9969,21.416088104248
625,53.0026,10.8789329528809
626,53.0064,9.42084693908691
627,53.0108,4.32675075531006
628,53.0164,4.76682615280151
629,53.0238,9.78154850006104
630,53.0297,9.66402816772461
631,53.0348,16.4384174346924
632,53.0408,21.0423355102539
633,53.0484,5.56003332138062
634,53.0552,7.16592741012573
635,53.0582,10.6371898651123
636,53.0643,10.2699022293091
637,53.0672,4.52295446395874
638,53.0703,4.93328857421875
639,53.0739,9.92101097106934
640,53.0787,19.5494804382324
641,53.0844,4.55747556686401
642,53.0885,13.8867635726929
643,53.0951,19.380184173584
644,53.0975,12.4337930679321
645,53.1012,6.67401266098022
646,53.1049,9.37038612365723
647,53.1115,19.104923248291
648,53.1160,9.61555099487305
649,53.1230,10.0478610992432
650,53.1294,7.54163455963135
651,53.1342,28.3565063476563
652,53.1378,16.7540512084961
653,53.1424,11.9071197509766
654,53.1476,11.0655269622803
655,53.1516,9.45640563964844
656,53.1594,10.6543760299683
657,53.1623,21.7883167266846
658,53.1666,24.5870304107666
659,53.1709,20.0961475372314
660,53.1788,9.527419090271
661,53.1828,22.7819709777832
662,53.1885,27.494384765625
663,53.1935,4.3719654083252
664,53.1971,16.07741355896
665,53.2035,16.5792560577393
666,53.2078,32.0508117675781
667,53.2163,10.7236547470093
668,53.2191,16.2976551055908
669,53.2257,4.27934074401855
