#"-ESI Scan (rt: 0.052-1.014 min, 80 scans) Frag=175.0V 14B.d "
#Point,X(Thompsons),Y(Counts)
0,50.0007,5.43853187561035
1,50.0043,2.76531267166138
2,50.0077,5.47160053253174
3,50.0119,5.12569189071655
4,50.0154,3.984459400177
5,50.0182,11.103006362915
6,50.0257,13.1512041091919
7,50.0308,4.36928176879883
8,50.0335,10.9098634719849
9,50.0376,11.4705362319946
10,50.0417,2.98182153701782
11,50.0454,5.58913707733154
12,50.0506,28.3053245544434
13,50.0584,4.84097194671631
14,50.0610,6.98260879516602
15,50.0647,3.10252070426941
16,50.0686,9.96334266662598
17,50.0754,2.6845588684082
18,50.0797,2.74540853500366
19,50.0839,22.9357681274414
20,50.0868,10.2415313720703
21,50.0919,14.8443965911865
22,50.0957,20.3813667297363
23,50.1034,6.88146448135376
24,50.1081,4.07224035263062
25,50.1120,2.96287870407104
26,50.1153,20.2753658294678
27,50.1200,22.305154800415
28,50.1245,7.75578451156616
29,50.1276,5.57324409484863
30,50.1326,7.92261743545532
31,50.1369,18.4836235046387
32,50.1413,11.8155651092529
33,50.1481,10.3602800369263
34,50.1535,3.17566967010498
35,50.1564,13.9324283599854
36,50.1592,14.5344362258911
37,50.1625,8.02666568756104
38,50.1680,18.5164470672607
39,50.1718,6.64033651351929
40,50.1764,16.1269969940186
41,50.1803,8.04365253448486
42,50.1845,5.4809045791626
43,50.1877,3.59682011604309
44,50.1911,3.36773252487183
45,50.1958,8.23712158203125
46,50.2008,11.2868824005127
47,50.2045,5.91392850875854
48,50.2085,16.2796516418457
49,50.2138,3.51633715629578
50,50.2230,3.21282839775085
51,50.2287,7.23603057861328
52,50.2341,9.72824192047119
53,50.2389,23.97825050354
54,50.2515,11.7419786453247
55,50.2631,3.11210942268372
56,50.2697,10.7572660446167
57,50.2729,14.8556423187256
58,50.2809,4.0831618309021
59,50.2847,10.3293428421021
60,50.2877,10.2391185760498
61,50.2919,2.61842679977417
62,50.2949,2.65512824058533
63,50.3005,9.99454498291016
64,50.3056,12.5021028518677
65,50.3111,9.72365283966064
66,50.3155,7.95278072357178
67,50.3208,6.2788290977478
68,50.3262,3.20289921760559
69,50.3315,20.0831775665283
70,50.3358,7.81659841537476
71,50.3427,10.2250194549561
72,50.3457,7.51625347137451
73,50.3513,6.93763113021851
74,50.3548,9.71304130554199
75,50.3598,16.1985530853271
76,50.3654,6.02310657501221
77,50.3693,18.4221038818359
78,50.3740,17.6563148498535
79,50.3773,8.47276020050049
80,50.3817,16.7420864105225
81,50.3843,11.2111186981201
82,50.3879,22.6558532714844
83,50.3929,2.69150018692017
84,50.3989,3.40001487731934
85,50.4028,13.3260478973389
86,50.4063,2.51385140419006
87,50.4108,19.6809883117676
88,50.4154,17.8710517883301
89,50.4183,3.39000010490417
90,50.4212,5.28245544433594
91,50.4275,8.21927452087402
92,50.4319,2.69387769699097
93,50.4371,13.0144290924072
94,50.4433,19.1941013336182
95,50.4484,5.26184940338135
96,50.4544,3.56238102912903
97,50.4572,8.30058574676514
98,50.4625,8.96797752380371
99,50.4660,6.2254695892334
100,50.4722,8.61447715759277
101,50.4757,15.2683563232422
102,50.4803,16.0785140991211
103,50.4842,13.9331893920898
104,50.4881,19.2730770111084
105,50.4947,15.2290468215942
106,50.4998,11.9145011901855
107,50.5063,13.5815105438232
108,50.5102,11.2895259857178
109,50.5149,8.99661636352539
110,50.5194,8.07783222198486
111,50.5275,13.7245559692383
112,50.5305,2.64531254768372
113,50.5335,16.0757713317871
114,50.5374,16.011116027832
115,50.5419,8.4427547454834
116,50.5467,8.02004241943359
117,50.5511,16.6538581848145
118,50.5561,5.97118425369263
119,50.5599,18.8106536865234
120,50.5630,8.21281242370605
121,50.5679,12.0227069854736
122,50.5729,12.7285242080688
123,50.5766,9.06173419952393
124,50.5809,15.9210634231567
125,50.5863,4.34542989730835
126,50.5928,5.16650247573853
127,50.6001,5.61623191833496
128,50.6053,3.75006794929504
129,50.6096,12.5283679962158
130,50.6147,21.6129264831543
131,50.6202,10.0173034667969
132,50.6241,17.9765777587891
133,50.6295,3.31666684150696
134,50.6330,8.11109733581543
135,50.6369,8.14038753509521
136,50.6435,8.30808734893799
137,50.6529,2.92632412910461
138,50.6587,10.3438396453857
139,50.6649,11.4390878677368
140,50.6695,6.80358123779297
141,50.6773,6.0279712677002
142,50.6841,16.1599578857422
143,50.6880,5.30159282684326
144,50.6935,2.59040188789368
145,50.6964,5.24211072921753
146,50.7148,20.6963386535645
147,50.7228,5.65496969223022
148,50.7275,15.9115171432495
149,50.7331,9.20592498779297
150,50.7406,8.01793384552002
151,50.7443,7.82544469833374
152,50.7484,3.74398159980774
153,50.7548,4.7305474281311
154,50.7602,14.0445575714111
155,50.7737,3.93612146377563
156,50.7805,7.43386363983154
157,50.7861,18.5746593475342
158,50.7950,12.5369415283203
159,50.8001,6.43406200408936
160,50.8029,4.44301271438599
161,50.8062,13.6873455047607
162,50.8137,3.57604479789734
163,50.8186,11.4815502166748
164,50.8228,14.3690004348755
165,50.8277,13.5819797515869
166,50.8356,21.9129981994629
167,50.8468,5.65150260925293
168,50.8531,2.75785803794861
169,50.8601,4.95017862319946
170,50.8661,12.1418972015381
171,50.8724,8.49645805358887
172,50.8752,3.67715525627136
173,50.8838,32.1606597900391
174,50.8872,3.00527954101563
175,50.8933,5.052809715271
176,50.9001,2.76553511619568
177,50.9060,18.7481822967529
178,50.9087,9.39685821533203
179,50.9141,11.1193284988403
180,50.9205,3.47994470596313
181,50.9249,6.47885417938232
182,50.9277,11.3271865844727
183,50.9326,2.56963992118835
184,50.9372,8.68747043609619
185,50.9410,7.09045171737671
186,50.9454,7.96552753448486
187,50.9483,5.0528621673584
188,50.9558,31.2822780609131
189,50.9636,5.28066921234131
190,50.9663,5.82756805419922
191,50.9720,15.6972961425781
192,50.9760,23.3817367553711
193,50.9816,24.2390899658203
194,50.9929,8.65577507019043
195,50.9965,5.78089809417725
196,51.0017,3.08889818191528
197,51.0101,22.0556945800781
198,51.0160,7.39791250228882
199,51.0238,17.5162086486816
200,51.0281,15.6245851516724
201,51.0347,8.97606182098389
202,51.0380,10.7816743850708
203,51.0408,17.016487121582
204,51.0462,4.67150068283081
205,51.0506,11.4851779937744
206,51.0562,4.77367639541626
207,51.0617,3.9643177986145
208,51.0672,8.61026477813721
209,51.0724,15.2349729537964
210,51.0770,8.6177921295166
211,51.0830,8.9726390838623
212,51.0893,10.6847496032715
213,51.0959,3.29633069038391
214,51.0986,6.802414894104
215,51.1122,15.210334777832
216,51.1194,6.37416410446167
217,51.1273,9.17979145050049
218,51.1323,18.3247547149658
219,51.1401,11.3087940216064
220,51.1483,2.57578802108765
221,51.1544,13.613881111145
222,51.1578,16.0341053009033
223,51.1629,9.81823348999023
224,51.1706,12.1097011566162
225,51.1754,11.9521894454956
226,51.1783,6.87908172607422
227,51.1831,12.2099027633667
228,51.1884,9.27528095245361
229,51.1977,11.9231309890747
230,51.2019,5.72141027450562
231,51.2052,14.3116683959961
232,51.2090,4.31592082977295
233,51.2129,3.50108671188354
234,51.2166,21.1025581359863
235,51.2224,21.4887104034424
236,51.2271,10.4677906036377
237,51.2332,33.0909233093262
238,51.2359,3.17509198188782
239,51.2410,6.07013463973999
240,51.2444,12.0190143585205
241,51.2501,13.8613376617432
242,51.2578,11.7908191680908
243,51.2609,3.20008969306946
244,51.2656,10.0776882171631
245,51.2709,8.05935478210449
246,51.2751,9.85845756530762
247,51.2829,2.90962648391724
248,51.2921,7.48542499542236
249,51.2992,6.35573148727417
250,51.3052,7.9259934425354
251,51.3089,4.65527772903442
252,51.3170,12.3700180053711
253,51.3199,15.8961915969849
254,51.3273,6.21395015716553
255,51.3376,13.1396465301514
256,51.3435,8.33218383789063
257,51.3476,2.60834670066834
258,51.3515,2.91996145248413
259,51.3549,14.8337249755859
260,51.3710,4.68932294845581
261,51.3731,9.65890216827393
262,51.3762,2.61006784439087
263,51.3812,3.29382085800171
264,51.3849,8.19340705871582
265,51.3911,3.78812146186829
266,51.4060,3.09722423553467
267,51.4107,12.6788635253906
268,51.4138,3.75446891784668
269,51.4192,5.8438720703125
270,51.4219,2.86510419845581
271,51.4264,5.2829270362854
272,51.4296,2.74730777740479
273,51.4345,34.4794235229492
274,51.4396,7.58258438110352
275,51.4429,3.41600346565247
276,51.4487,3.18756008148193
277,51.4548,6.64831399917603
278,51.4582,7.28713512420654
279,51.4606,15.8085403442383
280,51.4654,10.7201833724976
281,51.4697,4.83300161361694
282,51.4738,17.0398750305176
283,51.4777,11.6734848022461
284,51.4834,26.1919860839844
285,51.4912,4.0645809173584
286,51.4941,4.98016834259033
287,51.5032,4.38316631317139
288,51.5066,13.7533750534058
289,51.5107,6.71033573150635
290,51.5144,4.66964101791382
291,51.5173,4.62707805633545
292,51.5217,20.5719547271729
293,51.5276,4.95052051544189
294,51.5308,19.657169342041
295,51.5335,8.06110191345215
296,51.5403,11.1308012008667
297,51.5427,7.04668569564819
298,51.5481,16.3280086517334
299,51.5570,8.06689453125
300,51.5608,9.65587329864502
301,51.5641,10.0383634567261
302,51.5683,12.8560619354248
303,51.5735,5.47648906707764
304,51.5765,5.7160210609436
305,51.5876,12.6577091217041
306,51.5932,8.08002948760986
307,51.6055,11.7054605484009
308,51.6095,14.8142137527466
309,51.6133,3.17914533615112
310,51.6172,15.1487197875977
311,51.6234,18.1505794525146
312,51.6361,3.49764752388
313,51.6408,7.49969339370728
314,51.6458,2.66740489006042
315,51.6514,11.9173069000244
316,51.6547,3.06261825561523
317,51.6581,6.2949390411377
318,51.6613,10.1318817138672
319,51.6655,16.9101810455322
320,51.6719,3.69606399536133
321,51.6762,3.62600564956665
322,51.6817,4.94567918777466
323,51.6884,7.85035419464111
324,51.6974,13.1771602630615
325,51.7060,12.3095293045044
326,51.7111,6.48143625259399
327,51.7136,6.42471313476563
328,51.7175,21.2550144195557
329,51.7210,10.5958213806152
330,51.7256,6.17424726486206
331,51.7280,14.4118633270264
332,51.7335,2.62524509429932
333,51.7374,13.8353319168091
334,51.7436,10.5896816253662
335,51.7462,8.13545322418213
336,51.7493,2.60197377204895
337,51.7591,9.43564128875732
338,51.7634,20.5562858581543
339,51.7802,10.5489931106567
340,51.7922,9.17891407012939
341,51.8077,7.57387828826904
342,51.8115,8.730149269104
343,51.8192,8.11911773681641
344,51.8223,4.51496315002441
345,51.8256,23.3885116577148
346,51.8334,11.1891536712646
347,51.8369,8.4994535446167
348,51.8409,2.65460300445557
349,51.8439,2.68050003051758
350,51.8477,5.83316230773926
351,51.8511,4.59558820724487
352,51.8564,13.9642162322998
353,51.8595,6.27133464813232
354,51.8632,8.12833976745605
355,51.8698,2.82694911956787
356,51.8743,2.67766666412354
357,51.8786,2.93765115737915
358,51.8828,2.52250003814697
359,51.8877,17.8549671173096
360,51.8939,11.1339435577393
361,51.8971,8.89416027069092
362,51.9084,2.76251435279846
363,51.9134,10.715295791626
364,51.9196,7.71646022796631
365,51.9257,12.4948625564575
366,51.9306,13.3695096969604
367,51.9408,3.7126145362854
368,51.9453,4.68338298797607
369,51.9506,2.89187216758728
370,51.9539,3.47971987724304
371,51.9569,8.19063377380371
372,51.9598,8.21635437011719
373,51.9633,4.8426775932312
374,51.9690,6.38490152359009
375,51.9757,4.91962194442749
376,51.9834,8.8374137878418
377,51.9910,6.32654428482056
378,51.9969,18.4876861572266
379,52.0049,5.63013935089111
380,52.0080,3.50027775764465
381,52.0119,18.0044651031494
382,52.0228,17.7288017272949
383,52.0270,20.1593036651611
384,52.0314,5.67250919342041
385,52.0349,3.49872899055481
386,52.0401,2.57764077186584
387,52.0447,20.7625617980957
388,52.0509,13.9703722000122
389,52.0562,5.58494806289673
390,52.0653,3.53798222541809
391,52.0684,8.03332042694092
392,52.0717,11.5160493850708
393,52.0804,7.99817562103271
394,52.0856,17.7043132781982
395,52.0895,2.96113538742065
396,52.0928,18.9950351715088
397,52.0975,13.708119392395
398,52.1005,6.32293176651001
399,52.1065,3.02518939971924
400,52.1109,9.65640449523926
401,52.1167,5.18336868286133
402,52.1200,3.11260414123535
403,52.1228,3.58210229873657
404,52.1306,21.3977565765381
405,52.1412,25.4244613647461
406,52.1569,8.48137760162354
407,52.1635,11.3099994659424
408,52.1689,19.3475246429443
409,52.1746,8.59222221374512
410,52.1798,17.5784683227539
411,52.1830,3.63117980957031
412,52.1891,7.95804214477539
413,52.1933,3.07639503479004
414,52.1962,7.6360387802124
415,52.1995,10.2388381958008
416,52.2035,4.06141996383667
417,52.2089,4.94999980926514
418,52.2120,3.29901170730591
419,52.2152,13.9041500091553
420,52.2205,17.1292781829834
421,52.2253,7.77095174789429
422,52.2292,14.8986148834229
423,52.2348,3.2194504737854
424,52.2459,17.8369140625
425,52.2493,16.321741104126
426,52.2587,2.64650726318359
427,52.2632,2.65009188652039
428,52.2667,3.55437040328979
429,52.2697,20.3652725219727
430,52.2747,3.72448992729187
431,52.2795,3.95642852783203
432,52.2825,6.86321401596069
433,52.2878,8.07172584533691
434,52.2938,9.85192584991455
435,52.3026,14.1005525588989
436,52.3084,3.92461395263672
437,52.3141,11.50328540802
438,52.3225,3.89687490463257
439,52.3251,5.80094909667969
440,52.3299,15.8865795135498
441,52.3342,17.0038623809814
442,52.3421,9.22658729553223
443,52.3469,13.5995807647705
444,52.3510,18.8663539886475
445,52.3554,16.6327476501465
446,52.3584,4.92530393600464
447,52.3622,16.4911880493164
448,52.3674,9.70742034912109
449,52.3718,12.6746845245361
450,52.3769,14.3820171356201
451,52.3820,9.53123760223389
452,52.3878,3.1903064250946
453,52.3950,2.82781267166138
454,52.3991,7.87671947479248
455,52.4029,20.1199951171875
456,52.4072,9.73588371276855
457,52.4109,8.12193012237549
458,52.4151,2.95445013046265
459,52.4181,3.7331817150116
460,52.4239,13.2340641021729
461,52.4299,10.7835893630981
462,52.4380,18.3804130554199
463,52.4436,4.85018348693848
464,52.4465,5.41056346893311
465,52.4595,14.1456813812256
466,52.4648,8.13321495056152
467,52.4730,6.86748266220093
468,52.4771,17.0123481750488
469,52.4812,9.01955986022949
470,52.4852,7.94497919082642
471,52.4911,6.36658000946045
472,52.4958,6.68306255340576
473,52.5010,5.31557273864746
474,52.5073,17.348913192749
475,52.5137,5.24615097045898
476,52.5188,2.90239357948303
477,52.5212,7.86841106414795
478,52.5252,8.78808116912842
479,52.5302,8.14140605926514
480,52.5337,5.13946437835693
481,52.5408,10.1453475952148
482,52.5447,11.2244148254395
483,52.5479,4.76745891571045
484,52.5545,9.01241302490234
485,52.5617,13.4324769973755
486,52.5744,4.92178630828857
487,52.5788,6.74091339111328
488,52.5826,9.18111610412598
489,52.5888,12.2879543304443
490,52.5943,8.53572940826416
491,52.5974,8.06875038146973
492,52.6009,6.07919788360596
493,52.6110,4.45304393768311
494,52.6154,2.99239444732666
495,52.6254,8.10645771026611
496,52.6291,17.3324356079102
497,52.6331,8.81262493133545
498,52.6368,13.1439542770386
499,52.6428,19.5953941345215
500,52.6486,7.95715808868408
501,52.6535,7.54735565185547
502,52.6559,15.3458576202393
503,52.6587,5.60858869552612
504,52.6630,6.05217218399048
505,52.6705,24.3412837982178
506,52.6798,6.04957675933838
507,52.6844,6.72491455078125
508,52.6887,5.59249973297119
509,52.6942,3.18257212638855
510,52.6982,11.9269504547119
511,52.7010,3.09931516647339
512,52.7044,6.14599704742432
513,52.7098,21.668041229248
514,52.7159,3.42285299301147
515,52.7233,10.3052396774292
516,52.7288,5.32780790328979
517,52.7324,4.98096561431885
518,52.7381,21.4595680236816
519,52.7434,10.8589191436768
520,52.7467,9.12071800231934
521,52.7508,8.7521276473999
522,52.7572,12.7088069915771
523,52.7616,2.97305130958557
524,52.7707,9.49298286437988
525,52.7800,13.0884418487549
526,52.7835,5.53997325897217
527,52.7876,5.98868322372437
528,52.7959,6.36455774307251
529,52.8000,16.245922088623
530,52.8085,8.60359382629395
531,52.8110,21.2955436706543
532,52.8187,21.8924179077148
533,52.8232,10.9098634719849
534,52.8262,6.85329437255859
535,52.8389,13.6252994537354
536,52.8436,14.7937679290771
537,52.8483,8.47714233398438
538,52.8525,6.64432668685913
539,52.8579,10.3157186508179
540,52.8643,10.489595413208
541,52.8694,5.38151073455811
542,52.8742,5.42685794830322
543,52.8844,3.00044775009155
544,52.8893,10.6704454421997
545,52.8965,8.96763134002686
546,52.8995,10.2362804412842
547,52.9038,2.55991387367249
548,52.9117,5.04880428314209
549,52.9177,4.1810302734375
550,52.9206,8.03184700012207
551,52.9258,13.8518877029419
552,52.9292,10.2797117233276
553,52.9318,5.27033424377441
554,52.9394,4.39346313476563
555,52.9435,8.0758228302002
556,52.9466,7.99912643432617
557,52.9527,4.7844877243042
558,52.9594,3.64795994758606
559,52.9625,8.59922981262207
560,52.9684,6.46905612945557
561,52.9751,3.42782926559448
562,52.9794,18.1603813171387
563,52.9832,9.24388694763184
564,52.9879,15.2919864654541
565,52.9931,20.6997833251953
566,52.9980,12.7598934173584
567,53.0025,4.79444551467896
568,53.0070,4.71311521530151
569,53.0135,9.46943187713623
570,53.0175,15.2079467773438
571,53.0225,18.3478393554688
572,53.0336,5.7187180519104
573,53.0413,21.8029747009277
574,53.0474,8.55334186553955
575,53.0523,8.5272045135498
576,53.0599,12.5115032196045
577,53.0678,5.20775461196899
578,53.0713,18.6256065368652
579,53.0787,18.1165542602539
580,53.0830,5.50800037384033
581,53.0858,13.3532838821411
582,53.0901,10.9573802947998
583,53.0944,16.0203628540039
584,53.0991,9.38610649108887
585,53.1060,2.77697372436523
586,53.1108,3.03799390792847
587,53.1136,7.70421886444092
588,53.1182,7.73073482513428
589,53.1221,2.81420969963074
590,53.1266,8.18170833587646
591,53.1301,4.05372476577759
592,53.1391,4.55256223678589
593,53.1419,3.1156644821167
594,53.1516,28.6832695007324
595,53.1562,7.16917419433594
596,53.1616,9.58052253723145
597,53.1685,16.7464637756348
598,53.1718,8.51186084747314
599,53.1769,5.59722423553467
600,53.1805,5.74119091033936
601,53.1862,7.17595958709717
602,53.1899,3.49503135681152
603,53.1969,19.0366687774658
604,53.2025,4.42722415924072
605,53.2114,2.8531665802002
606,53.2207,4.75083351135254
607,53.2250,17.9409427642822
608,53.2283,4.26557207107544
609,53.2326,4.05818557739258
610,53.2380,23.4117202758789
611,53.2422,3.00727796554565
612,53.2461,9.00399780273438
613,53.2506,5.97999477386475
614,53.2549,11.1026744842529
615,53.2630,4.64597129821777
616,53.2674,6.37842512130737
617,53.2720,8.63289451599121
618,53.2775,2.96274995803833
619,53.2807,13.1227264404297
620,53.2846,16.3576717376709
621,53.2932,11.4677038192749
622,53.2989,13.6990175247192
623,53.3055,6.2833399772644
624,53.3101,8.52687644958496
625,53.3147,10.8186311721802
626,53.3239,3.53188967704773
627,53.3278,11.2443618774414
628,53.3320,4.8737268447876
629,53.3388,11.2175607681274
630,53.3432,2.90625
631,53.3475,10.3451519012451
632,53.3534,6.45461130142212
633,53.3610,11.6100158691406
634,53.3642,7.89221477508545
635,53.3691,8.64300441741943
636,53.3758,12.559681892395
637,53.3790,11.3723316192627
638,53.3855,2.78823518753052
639,53.3925,28.5602836608887
640,53.3974,5.61143398284912
641,53.4003,11.0091114044189
642,53.4099,9.03384208679199
643,53.4135,6.68075799942017
644,53.4164,2.7395453453064
645,53.4215,23.0816631317139
646,53.4269,6.1680474281311
647,53.4340,15.0918273925781
648,53.4376,9.34446430206299
649,53.4472,7.65208959579468
650,53.4541,6.30021142959595
651,53.4593,10.4689073562622
652,53.4654,10.0250377655029
653,53.4712,4.90387630462646
654,53.4760,8.57670116424561
655,53.4795,2.92714691162109
656,53.4840,22.9251365661621
657,53.4879,3.00324273109436
658,53.4942,8.5859203338623
659,53.5007,9.85307788848877
660,53.5043,3.12117791175842
661,53.5092,2.98151040077209
662,53.5129,13.1907625198364
663,53.5158,5.02940034866333
664,53.5203,8.53273773193359
665,53.5256,8.93621826171875
666,53.5300,14.9319868087769
667,53.5363,11.3186950683594
668,53.5402,9.40001773834229
