#"-ESI Scan (rt: 0.054-1.017 min, 80 scans) Frag=175.0V 18B.d "
#Point,X(Thompsons),Y(Counts)
0,50.0039,3.06804490089417
1,50.0074,9.15692329406738
2,50.0112,11.3294706344604
3,50.0161,12.1494655609131
4,50.0221,11.9427242279053
5,50.0270,10.0126638412476
6,50.0370,3.45754170417786
7,50.0402,12.3718004226685
8,50.0433,6.03682422637939
9,50.0472,7.13951015472412
10,50.0514,8.71391868591309
11,50.0545,10.0215082168579
12,50.0578,15.4617109298706
13,50.0620,8.07481956481934
14,50.0672,6.11630249023438
15,50.0709,8.54119300842285
16,50.0738,6.38754892349243
17,50.0831,2.93752956390381
18,50.0873,12.0400619506836
19,50.0914,6.37167167663574
20,50.0941,2.84218740463257
21,50.0975,9.58127403259277
22,50.1060,17.2238864898682
23,50.1167,8.55107593536377
24,50.1233,10.3104343414307
25,50.1268,2.985511302948
26,50.1334,8.91383934020996
27,50.1368,11.5286769866943
28,50.1414,5.81516313552856
29,50.1498,17.6911487579346
30,50.1532,8.54767513275146
31,50.1630,11.7010793685913
32,50.1671,8.85075759887695
33,50.1717,3.46530795097351
34,50.1767,8.96829509735107
35,50.1869,6.57242107391357
36,50.1892,11.1273727416992
37,50.1934,11.3974666595459
38,50.1977,5.27159786224365
39,50.2071,17.6783599853516
40,50.2123,5.73099040985107
41,50.2157,4.90984392166138
42,50.2195,7.49356603622437
43,50.2228,10.8552932739258
44,50.2470,6.53497695922852
45,50.2499,13.7742490768433
46,50.2535,2.52717018127441
47,50.2568,3.16316962242126
48,50.2636,5.43265962600708
49,50.2715,3.68766260147095
50,50.2753,9.50405311584473
51,50.2850,3.18860054016113
52,50.2893,14.4498729705811
53,50.3014,17.3563861846924
54,50.3055,10.3484115600586
55,50.3119,12.781530380249
56,50.3190,13.1024656295776
57,50.3249,15.7681522369385
58,50.3307,8.5466136932373
59,50.3373,5.89593029022217
60,50.3416,17.1743946075439
61,50.3452,3.70495915412903
62,50.3477,8.76956653594971
63,50.3514,16.1855068206787
64,50.3553,2.73642039299011
65,50.3599,6.69991397857666
66,50.3664,16.4932498931885
67,50.3718,4.67819118499756
68,50.3770,10.8274211883545
69,50.3810,2.80638575553894
70,50.3856,15.5717525482178
71,50.3892,9.1971378326416
72,50.3979,14.8926906585693
73,50.4056,6.74869060516357
74,50.4095,5.44920492172241
75,50.4197,5.99931955337524
76,50.4246,2.94460368156433
77,50.4315,10.5749893188477
78,50.4361,7.36607980728149
79,50.4411,6.3895959854126
80,50.4447,6.7342529296875
81,50.4502,4.90563678741455
82,50.4531,12.4034061431885
83,50.4582,3.05190515518188
84,50.4642,15.4849395751953
85,50.4664,12.5319576263428
86,50.4694,4.79364204406738
87,50.4731,3.7067494392395
88,50.4818,3.2890625
89,50.4898,16.9882049560547
90,50.4953,9.15572357177734
91,50.4991,5.68690013885498
92,50.5041,4.65057468414307
93,50.5071,5.97771835327148
94,50.5101,9.28009986877441
95,50.5134,8.46977806091309
96,50.5191,8.68057441711426
97,50.5246,19.2621097564697
98,50.5288,2.66159415245056
99,50.5316,11.3595867156982
100,50.5347,11.9368133544922
101,50.5388,10.2557487487793
102,50.5481,9.76267910003662
103,50.5553,7.48237752914429
104,50.5629,19.1791534423828
105,50.5664,11.4667940139771
106,50.5723,4.72368431091309
107,50.5755,23.4595985412598
108,50.5788,18.663272857666
109,50.5833,26.4737434387207
110,50.5895,6.18421411514282
111,50.5947,16.6160926818848
112,50.6012,10.0468120574951
113,50.6058,11.6399831771851
114,50.6133,6.07364416122437
115,50.6180,9.2666540145874
116,50.6209,12.6248483657837
117,50.6375,12.9723148345947
118,50.6418,10.5983266830444
119,50.6509,9.59249019622803
120,50.6561,4.71327304840088
121,50.6633,6.39626026153564
122,50.6672,14.5621614456177
123,50.6737,5.68636322021484
124,50.6801,5.16405010223389
125,50.6859,14.1815853118896
126,50.6906,3.48770904541016
127,50.6946,19.443675994873
128,50.6993,27.0593013763428
129,50.7030,4.61350584030151
130,50.7094,4.54987621307373
131,50.7131,9.04231548309326
132,50.7179,6.9908332824707
133,50.7237,5.16198539733887
134,50.7281,6.06991386413574
135,50.7323,9.21787166595459
136,50.7368,11.8377227783203
137,50.7420,5.60482120513916
138,50.7477,2.52544903755188
139,50.7520,17.0331420898438
140,50.7588,12.6136875152588
141,50.7646,3.06231760978699
142,50.7681,5.73176002502441
143,50.7711,15.0641584396362
144,50.7758,5.00831842422485
145,50.7792,20.6358165740967
146,50.7835,16.4053955078125
147,50.7967,2.71531248092651
148,50.8051,6.43134021759033
149,50.8147,17.3341407775879
150,50.8245,2.98004031181335
151,50.8275,11.843487739563
152,50.8327,8.04619407653809
153,50.8374,3.67711400985718
154,50.8404,18.5866508483887
155,50.8443,13.5892887115479
156,50.8523,16.455587387085
157,50.8587,14.4148836135864
158,50.8615,2.95200896263123
159,50.8660,4.65003871917725
160,50.8706,14.3833055496216
161,50.8773,20.4215660095215
162,50.8874,12.9605102539063
163,50.8922,4.00714302062988
164,50.8960,3.17606806755066
165,50.8997,24.4645881652832
166,50.9064,2.78711581230164
167,50.9093,20.6729545593262
168,50.9153,14.7077379226685
169,50.9202,14.1462450027466
170,50.9253,3.21377563476563
171,50.9295,15.9969272613525
172,50.9321,17.4540309906006
173,50.9381,16.2228736877441
174,50.9417,2.92074847221375
175,50.9502,6.66260433197021
176,50.9550,2.73415184020996
177,50.9626,10.992299079895
178,50.9663,4.91831684112549
179,50.9702,4.60429048538208
180,50.9745,11.2365217208862
181,50.9785,5.47107601165771
182,50.9833,5.44006299972534
183,50.9871,7.76849269866943
184,50.9938,4.90131998062134
185,50.9989,16.1211853027344
186,51.0034,2.84195590019226
187,51.0093,16.3049774169922
188,51.0161,15.8172273635864
189,51.0245,24.189790725708
190,51.0281,10.1173191070557
191,51.0322,13.2191562652588
192,51.0365,9.90578651428223
193,51.0399,13.1321897506714
194,51.0429,13.9526567459106
195,51.0463,18.4844417572021
196,51.0502,3.73777770996094
197,51.0576,8.10220527648926
198,51.0655,5.85080480575562
199,51.0697,14.17258644104
200,51.0778,7.75088500976563
201,51.0805,6.78639602661133
202,51.0845,2.50005125999451
203,51.0905,11.4583377838135
204,51.0973,16.2688884735107
205,51.1023,13.4787273406982
206,51.1095,11.4212741851807
207,51.1130,6.51596832275391
208,51.1196,14.8409376144409
209,51.1245,3.36871337890625
210,51.1278,8.97202491760254
211,51.1334,21.4169101715088
212,51.1427,15.0967378616333
213,51.1461,7.08563375473022
214,51.1492,3.42604184150696
215,51.1520,3.42221117019653
216,51.1544,9.23595714569092
217,51.1589,2.91111779212952
218,51.1630,9.04507255554199
219,51.1693,14.8966856002808
220,51.1747,8.5694055557251
221,51.1832,6.43900537490845
222,51.1883,12.9508819580078
223,51.1921,3.32227563858032
224,51.1995,5.00643587112427
225,51.2025,3.0182101726532
226,51.2073,6.0716986656189
227,51.2143,4.73512029647827
228,51.2178,9.96433067321777
229,51.2210,4.41328144073486
230,51.2242,8.3134765625
231,51.2282,7.59748840332031
232,51.2384,15.5809993743896
233,51.2430,7.47928762435913
234,51.2486,13.612512588501
235,51.2584,13.3355360031128
236,51.2617,3.10016441345215
237,51.2645,3.52072024345398
238,51.2673,12.0678176879883
239,51.2734,18.7775459289551
240,51.2788,3.00588774681091
241,51.2841,12.8534212112427
242,51.2894,16.8961353302002
243,51.2932,9.10262203216553
244,51.2967,16.0336074829102
245,51.3019,3.29705381393433
246,51.3062,8.51230812072754
247,51.3111,5.54474258422852
248,51.3191,4.08014297485352
249,51.3235,8.93446350097656
250,51.3281,3.41043424606323
251,51.3368,21.4537811279297
252,51.3421,11.6252059936523
253,51.3477,8.46102809906006
254,51.3515,3.24749994277954
255,51.3551,11.4883947372437
256,51.3601,4.64305830001831
257,51.3641,15.8828277587891
258,51.3698,10.8776950836182
259,51.3740,11.0915012359619
260,51.3817,5.28796672821045
261,51.3868,11.480486869812
262,51.3915,6.84183025360107
263,51.3989,3.0251202583313
264,51.4043,10.3051109313965
265,51.4088,12.3699674606323
266,51.4126,11.0525798797607
267,51.4150,7.45614910125732
268,51.4248,8.22014713287354
269,51.4293,8.95303153991699
270,51.4413,19.3783702850342
271,51.4493,11.7652540206909
272,51.4553,13.2644147872925
273,51.4598,6.72284173965454
274,51.4669,8.73213958740234
275,51.4728,8.6732873916626
276,51.4818,8.00965881347656
277,51.4928,6.33540678024292
278,51.4949,6.3893723487854
279,51.4991,5.9765625
280,51.5019,8.82564830780029
281,51.5052,5.65865659713745
282,51.5101,20.9655265808105
283,51.5134,4.47192287445068
284,51.5166,17.9320163726807
285,51.5213,14.5681304931641
286,51.5280,14.1305999755859
287,51.5318,3.33629608154297
288,51.5369,21.9053859710693
289,51.5408,4.59321594238281
290,51.5455,2.59519958496094
291,51.5498,11.8785018920898
292,51.5527,7.00658178329468
293,51.5567,13.6460037231445
294,51.5603,16.8894424438477
295,51.5648,15.3599643707275
296,51.5690,4.91541337966919
297,51.5720,10.4036245346069
298,51.5760,9.34087944030762
299,51.5809,5.10771894454956
300,51.5867,12.8120698928833
301,51.5926,5.01527976989746
302,51.5960,12.9835615158081
303,51.5997,7.99776935577393
304,51.6139,3.87824392318726
305,51.6174,7.15147686004639
306,51.6209,17.187894821167
307,51.6243,6.28042125701904
308,51.6282,17.6671848297119
309,51.6336,8.48751354217529
310,51.6397,9.08200073242188
311,51.6445,10.0165300369263
312,51.6479,9.41828918457031
313,51.6505,12.9098863601685
314,51.6537,3.42670369148254
315,51.6592,18.43434715271
316,51.6636,9.7625904083252
317,51.6674,19.4093780517578
318,51.6735,3.34035563468933
319,51.6768,10.1475257873535
320,51.6844,8.95108795166016
321,51.6876,3.03360652923584
322,51.6903,2.84315299987793
323,51.6951,9.05540752410889
324,51.7001,4.80555582046509
325,51.7060,16.2301025390625
326,51.7109,15.2966594696045
327,51.7153,7.54618072509766
328,51.7181,8.01509571075439
329,51.7209,3.02362132072449
330,51.7276,22.1572208404541
331,51.7324,7.56767749786377
332,51.7368,8.75944805145264
333,51.7416,6.6513557434082
334,51.7497,10.3051099777222
335,51.7518,13.1034183502197
336,51.7576,3.98803329467773
337,51.7702,5.91042470932007
338,51.7726,11.498911857605
339,51.7776,8.97004127502441
340,51.7840,9.96171283721924
341,51.7871,12.6668548583984
342,51.7951,8.51222515106201
343,51.7998,15.5262451171875
344,51.8035,7.90532970428467
345,51.8067,5.0446662902832
346,51.8097,12.1535720825195
347,51.8173,4.9272985458374
348,51.8338,10.9645290374756
349,51.8378,16.4045562744141
350,51.8476,4.81435298919678
351,51.8540,14.1934814453125
352,51.8587,3.2025294303894
353,51.8615,4.353928565979
354,51.8715,13.0219697952271
355,51.8749,17.0814781188965
356,51.8796,9.95709323883057
357,51.8879,17.6244468688965
358,51.8926,4.86390447616577
359,51.8986,4.63979625701904
360,51.9041,7.15621566772461
361,51.9095,3.0863344669342
362,51.9158,8.24618053436279
363,51.9188,6.4777250289917
364,51.9224,10.3097553253174
365,51.9270,11.0547151565552
366,51.9308,5.51181030273438
367,51.9344,9.4694881439209
368,51.9441,18.1616401672363
369,51.9479,10.5129051208496
370,51.9522,10.2050981521606
371,51.9670,11.0380430221558
372,51.9784,10.3699798583984
373,51.9878,3.62202382087708
374,51.9984,11.8046836853027
375,52.0035,20.1568031311035
376,52.0136,20.5230865478516
377,52.0174,3.38766241073608
378,52.0202,5.1052770614624
379,52.0248,11.4996767044067
380,52.0303,2.60864877700806
381,52.0332,3.70704197883606
382,52.0403,4.90580368041992
383,52.0432,15.0408601760864
384,52.0506,12.6301651000977
385,52.0579,11.812614440918
386,52.0631,5.83426141738892
387,52.0690,15.7735414505005
388,52.0733,5.74946022033691
389,52.0828,19.8158073425293
390,52.0901,8.08802795410156
391,52.0931,4.15850019454956
392,52.1017,3.68770360946655
393,52.1066,25.5623416900635
394,52.1117,12.2048568725586
395,52.1147,4.99455118179321
396,52.1187,9.16970252990723
397,52.1259,17.0808887481689
398,52.1313,6.06540536880493
399,52.1354,2.82760405540466
400,52.1395,4.7829384803772
401,52.1462,8.47873687744141
402,52.1497,2.61509561538696
403,52.1530,7.47725820541382
404,52.1612,19.0115070343018
405,52.1673,21.4779472351074
406,52.1708,3.04401683807373
407,52.1749,24.2984447479248
408,52.1783,6.04660129547119
409,52.1852,10.9986972808838
410,52.1907,18.6519451141357
411,52.1967,3.14687490463257
412,52.2001,13.6974639892578
413,52.2066,18.5800437927246
414,52.2115,14.9314832687378
415,52.2159,10.9960384368896
416,52.2217,12.4540510177612
417,52.2261,8.53448009490967
418,52.2295,7.7881965637207
419,52.2362,16.0694160461426
420,52.2417,17.6720104217529
421,52.2458,5.54630184173584
422,52.2509,20.6275959014893
423,52.2541,12.9183559417725
424,52.2590,8.70391178131104
425,52.2621,16.2227725982666
426,52.2697,9.58874320983887
427,52.2734,14.1403903961182
428,52.2773,16.7271289825439
429,52.2865,8.00969886779785
430,52.2943,2.68183946609497
431,52.2977,5.2717981338501
432,52.3033,4.93833351135254
433,52.3085,2.55308675765991
434,52.3125,10.1254634857178
435,52.3151,13.4101819992065
436,52.3214,13.9956798553467
437,52.3301,16.678768157959
438,52.3343,8.54322242736816
439,52.3372,2.55269289016724
440,52.3406,17.4814567565918
441,52.3446,4.75468730926514
442,52.3494,12.4073514938354
443,52.3536,10.6554899215698
444,52.3566,6.12738132476807
445,52.3601,4.04744434356689
446,52.3624,5.71524095535278
447,52.3687,3.02505135536194
448,52.3719,4.81099605560303
449,52.3753,7.01348257064819
450,52.3790,12.4571781158447
451,52.3847,31.3345947265625
452,52.3927,10.0861682891846
453,52.4006,14.1661281585693
454,52.4063,3.28581738471985
455,52.4123,14.343638420105
456,52.4169,6.42614507675171
457,52.4257,11.3170070648193
458,52.4343,8.3245096206665
459,52.4378,27.4844455718994
460,52.4479,8.58096218109131
461,52.4519,3.15083336830139
462,52.4564,5.00564765930176
463,52.4605,10.8152990341187
464,52.4681,6.02746772766113
465,52.4707,5.80794715881348
466,52.4765,8.72126579284668
467,52.4827,17.2740879058838
468,52.4904,16.9206562042236
469,52.4963,5.30316066741943
470,52.5052,12.7953853607178
471,52.5093,23.1052589416504
472,52.5171,5.55139017105103
473,52.5213,2.93565344810486
474,52.5242,4.10673379898071
475,52.5288,16.2461395263672
476,52.5346,17.6977100372314
477,52.5426,15.4113311767578
478,52.5471,7.75823593139648
479,52.5509,11.0597333908081
480,52.5562,7.23165416717529
481,52.5662,3.02355885505676
482,52.5750,14.3687515258789
483,52.5813,21.6006717681885
484,52.5852,6.52723979949951
485,52.5906,3.25165367126465
486,52.5955,8.15036296844482
487,52.5992,12.8770217895508
488,52.6074,8.55293273925781
489,52.6122,3.23046875
490,52.6222,6.56207418441772
491,52.6279,8.09268760681152
492,52.6318,6.47898101806641
493,52.6439,7.20358419418335
494,52.6547,15.8345994949341
495,52.6592,12.5614767074585
496,52.6658,14.6692581176758
497,52.6706,5.50368499755859
498,52.6764,9.45293235778809
499,52.6807,3.44567489624023
500,52.6839,14.1184062957764
501,52.6926,12.5278301239014
502,52.6981,6.04746055603027
503,52.7061,2.72613215446472
504,52.7099,4.70064926147461
505,52.7142,4.12387228012085
506,52.7191,5.8386492729187
507,52.7235,13.9417724609375
508,52.7291,7.77032327651978
509,52.7340,14.845588684082
510,52.7383,8.09723663330078
511,52.7424,4.68917369842529
512,52.7457,14.5921859741211
513,52.7484,4.53916072845459
514,52.7516,8.48907661437988
515,52.7553,8.41517448425293
516,52.7586,13.8532466888428
517,52.7666,15.3831605911255
518,52.7700,16.625659942627
519,52.7758,17.6428108215332
520,52.7813,5.70907688140869
521,52.7869,10.7835187911987
522,52.7922,11.1614179611206
523,52.7955,3.54776263237
524,52.7987,6.7756781578064
525,52.8029,6.3199896812439
526,52.8072,8.93303108215332
527,52.8107,19.0472412109375
528,52.8166,3.20320510864258
529,52.8207,6.71596527099609
530,52.8242,5.94419622421265
531,52.8318,6.84681844711304
532,52.8385,2.95170450210571
533,52.8415,3.4226245880127
534,52.8445,2.87807703018188
535,52.8495,18.7443351745605
536,52.8563,2.65424108505249
537,52.8665,6.51042461395264
538,52.8691,5.1065845489502
539,52.8748,13.0196886062622
540,52.8814,7.11470699310303
541,52.8856,6.75241088867188
542,52.8893,14.6910190582275
543,52.8963,5.75919055938721
544,52.9022,17.821626663208
545,52.9088,11.4207172393799
546,52.9148,8.13404083251953
547,52.9193,7.80838489532471
548,52.9247,7.97377252578735
549,52.9304,25.1278781890869
550,52.9401,5.35015964508057
551,52.9437,14.9890766143799
552,52.9568,11.330867767334
553,52.9616,2.82800245285034
554,52.9653,6.08539056777954
555,52.9719,3.04500007629395
556,52.9787,11.9551792144775
557,52.9850,8.32779121398926
558,52.9896,2.67937517166138
559,52.9969,2.63950061798096
560,52.9997,8.34101676940918
561,53.0035,19.319787979126
562,53.0088,8.67378044128418
563,53.0151,9.06249046325684
564,53.0190,26.7952213287354
565,53.0224,11.1183986663818
566,53.0262,11.5162715911865
567,53.0290,8.38571834564209
568,53.0342,21.6011199951172
569,53.0397,23.982494354248
570,53.0427,12.6794414520264
571,53.0467,18.8123741149902
572,53.0532,6.10305643081665
573,53.0567,5.57869052886963
574,53.0610,2.67629957199097
575,53.0642,3.51960229873657
576,53.0682,9.79998302459717
577,53.0723,12.221079826355
578,53.0766,4.66915702819824
579,53.0832,18.9623527526855
580,53.0864,9.46386909484863
581,53.0900,13.6021518707275
582,53.0956,8.98604011535645
583,53.1008,4.66358327865601
584,53.1053,12.109224319458
585,53.1103,3.0546875
586,53.1138,4.95156240463257
587,53.1221,30.4442806243896
588,53.1272,13.3454341888428
589,53.1320,21.701473236084
590,53.1369,28.4593086242676
591,53.1423,9.1273193359375
592,53.1460,8.83682918548584
593,53.1491,3.15401792526245
594,53.1535,12.0428085327148
595,53.1579,2.97968745231628
596,53.1662,24.921085357666
597,53.1699,4.91838407516479
598,53.1730,28.8747138977051
599,53.1799,8.27239227294922
600,53.1865,2.97012233734131
601,53.1901,5.82943248748779
602,53.1942,7.48904132843018
603,53.1973,2.55062127113342
604,53.2011,9.80181789398193
605,53.2088,10.8217134475708
606,53.2135,2.99584817886353
607,53.2177,5.95703744888306
608,53.2202,7.55548763275146
609,53.2276,15.5525054931641
610,53.2350,9.13359642028809
611,53.2377,7.38604354858398
612,53.2425,12.5788421630859
613,53.2476,11.3048191070557
614,53.2515,7.79504156112671
615,53.2656,7.97375202178955
616,53.2715,13.9490633010864
617,53.2757,6.67227268218994
618,53.2785,15.8654146194458
619,53.2845,17.4322090148926
620,53.2935,10.6141862869263
621,53.2993,9.67604732513428
622,53.3037,2.5755660533905
623,53.3068,5.95478534698486
624,53.3110,9.64566707611084
625,53.3141,11.3665380477905
626,53.3224,7.39892673492432
627,53.3252,5.80326747894287
628,53.3304,5.21551990509033
629,53.3336,14.4382381439209
630,53.3466,2.55610466003418
631,53.3494,2.95648336410522
632,53.3575,9.33534717559814
633,53.3656,11.0916109085083
634,53.3703,16.6954364776611
635,53.3756,4.97944736480713
636,53.3784,12.6082801818848
637,53.3849,3.41252756118774
638,53.3889,6.92079925537109
639,53.3996,13.20166015625
640,53.4030,6.04459476470947
641,53.4104,18.5541896820068
642,53.4146,21.628776550293
643,53.4198,12.2084140777588
644,53.4228,3.99919557571411
645,53.4266,2.97702193260193
646,53.4299,2.77708339691162
647,53.4341,11.5229368209839
648,53.4393,4.19707345962524
649,53.4424,3.10139036178589
650,53.4488,8.3244047164917
651,53.4541,12.7891330718994
652,53.4572,7.02079916000366
653,53.4602,7.16814517974854
654,53.4647,9.81269359588623
655,53.4685,5.62949085235596
656,53.4767,9.4621696472168
657,53.4814,6.99756097793579
658,53.4847,3.12400889396667
659,53.4884,19.8974704742432
660,53.4933,3.24318194389343
661,53.4967,7.79569101333618
662,53.5007,25.90891456604
663,53.5049,4.89120960235596
664,53.5083,13.0660495758057
665,53.5163,20.1421852111816
666,53.5240,5.40558099746704
667,53.5275,4.21815967559814
668,53.5304,7.62127590179443
669,53.5362,13.4745531082153
