#"-ESI Scan (rt: 0.058-1.020 min, 80 scans) Frag=175.0V 22B.d "
#Point,X(Thompsons),Y(Counts)
0,50.0013,3.06348896026611
1,50.0068,7.64673328399658
2,50.0105,3.94536781311035
3,50.0160,3.72833323478699
4,50.0196,5.15446424484253
5,50.0242,11.3950529098511
6,50.0303,3.32450723648071
7,50.0343,3.44216990470886
8,50.0389,2.5825183391571
9,50.0438,10.5161161422729
10,50.0484,10.5701007843018
11,50.0527,8.9007568359375
12,50.0575,9.04555511474609
13,50.0650,10.5665159225464
14,50.0714,4.19561243057251
15,50.0743,6.24413251876831
16,50.0786,6.54777002334595
17,50.0834,13.3552265167236
18,50.0881,2.83395338058472
19,50.0930,3.41302061080933
20,50.0992,8.66106128692627
21,50.1060,14.0306186676025
22,50.1111,8.01631641387939
23,50.1152,4.90229797363281
24,50.1207,6.69530344009399
25,50.1254,8.02853107452393
26,50.1308,11.3977947235107
27,50.1359,3.04756665229797
28,50.1392,11.0739326477051
29,50.1429,13.758882522583
30,50.1495,11.9674825668335
31,50.1543,11.36829662323
32,50.1578,3.56239700317383
33,50.1604,8.55533790588379
34,50.1663,23.5272579193115
35,50.1704,14.4531736373901
36,50.1752,3.7355010509491
37,50.1800,11.5287246704102
38,50.1853,3.47198033332825
39,50.1882,18.8336429595947
40,50.1918,2.50086808204651
41,50.1952,14.7405910491943
42,50.2005,8.72588062286377
43,50.2055,14.3197298049927
44,50.2094,5.33502626419067
45,50.2182,5.38385486602783
46,50.2299,3.20010423660278
47,50.2435,19.7825508117676
48,50.2520,3.14567494392395
49,50.2677,5.86047983169556
50,50.2792,8.95024394989014
51,50.2860,11.0962352752686
52,50.2908,29.5952491760254
53,50.2962,16.5559005737305
54,50.3028,11.1594829559326
55,50.3051,5.21953344345093
56,50.3126,12.4148511886597
57,50.3176,2.95159435272217
58,50.3207,2.92553877830505
59,50.3271,24.9715194702148
60,50.3306,8.20260810852051
61,50.3356,9.73135566711426
62,50.3408,9.27824878692627
63,50.3502,2.5552499294281
64,50.3529,4.78508520126343
65,50.3555,7.15231704711914
66,50.3590,14.2362623214722
67,50.3636,5.56932306289673
68,50.3711,2.74475765228271
69,50.3756,15.7705059051514
70,50.3802,7.1829400062561
71,50.3838,11.7546586990356
72,50.3879,5.35010671615601
73,50.3919,16.4062061309814
74,50.3965,16.6090183258057
75,50.4000,6.21288013458252
76,50.4039,9.08547306060791
77,50.4069,20.4301242828369
78,50.4110,7.41588068008423
79,50.4156,4.83636856079102
80,50.4195,6.78037118911743
81,50.4219,5.61667776107788
82,50.4275,21.8514499664307
83,50.4317,11.3369464874268
84,50.4352,22.0660514831543
85,50.4399,24.7244129180908
86,50.4456,3.02571535110474
87,50.4489,5.72408103942871
88,50.4533,15.9892063140869
89,50.4581,8.86010456085205
90,50.4644,17.9680919647217
91,50.4685,16.6641960144043
92,50.4722,15.7935657501221
93,50.4749,6.02035236358643
94,50.4780,12.9221248626709
95,50.4823,7.29697418212891
96,50.4883,23.7790927886963
97,50.4912,26.4466190338135
98,50.4975,2.63911199569702
99,50.5033,2.65555548667908
100,50.5079,10.9085683822632
101,50.5149,9.79078006744385
102,50.5192,22.6976566314697
103,50.5243,7.66142559051514
104,50.5267,7.52749252319336
105,50.5313,10.3216037750244
106,50.5355,3.93611907958984
107,50.5399,7.76979351043701
108,50.5472,14.7474918365479
109,50.5508,3.23140478134155
110,50.5536,8.50547790527344
111,50.5590,19.5127086639404
112,50.5625,21.7910289764404
113,50.5697,6.34123516082764
114,50.5732,5.9126558303833
115,50.5776,4.88132762908936
116,50.5834,10.4401683807373
117,50.5881,13.018684387207
118,50.5908,11.5388927459717
119,50.5948,9.849365234375
120,50.6006,3.01984882354736
121,50.6092,12.3852939605713
122,50.6136,4.60306644439697
123,50.6163,13.0411376953125
124,50.6211,14.4781465530396
125,50.6282,17.3843898773193
126,50.6335,11.8726253509521
127,50.6375,17.8311595916748
128,50.6430,13.4393720626831
129,50.6480,10.8166036605835
130,50.6549,15.4227905273438
131,50.6651,10.2847032546997
132,50.6745,11.7453336715698
133,50.6808,8.62212085723877
134,50.6850,9.96808242797852
135,50.6912,3.21409463882446
136,50.7018,15.9677152633667
137,50.7054,14.1082811355591
138,50.7092,14.4243669509888
139,50.7132,16.4068241119385
140,50.7207,12.4358263015747
141,50.7315,9.92064952850342
142,50.7380,3.52519845962524
143,50.7435,9.97347736358643
144,50.7480,6.44161987304688
145,50.7552,15.4471616744995
146,50.7586,8.30633449554443
147,50.7638,6.53588581085205
148,50.7685,19.9106216430664
149,50.7720,2.70032048225403
150,50.7759,9.46310615539551
151,50.7848,3.52576589584351
152,50.7897,2.50029802322388
153,50.7931,3.15507078170776
154,50.7961,3.1229453086853
155,50.8011,9.05082225799561
156,50.8044,11.5753231048584
157,50.8085,3.1418445110321
158,50.8112,8.84562206268311
159,50.8172,14.4230375289917
160,50.8225,10.6295804977417
161,50.8265,6.42013692855835
162,50.8330,3.76723623275757
163,50.8393,5.03234100341797
164,50.8421,3.03783369064331
165,50.8465,13.0659847259521
166,50.8576,5.54926061630249
167,50.8606,7.56876373291016
168,50.8645,6.49833965301514
169,50.8703,13.1689510345459
170,50.8739,18.6579475402832
171,50.8834,4.60792016983032
172,50.8882,3.73366737365723
173,50.8946,18.9243278503418
174,50.9012,7.54964590072632
175,50.9062,12.3413667678833
176,50.9108,10.9621286392212
177,50.9177,9.57821655273438
178,50.9237,3.52932167053223
179,50.9303,10.2360973358154
180,50.9375,2.86449003219604
181,50.9409,14.1216325759888
182,50.9469,3.21174383163452
183,50.9516,9.34597110748291
184,50.9552,3.17932844161987
185,50.9611,5.43524026870728
186,50.9643,10.6402826309204
187,50.9697,17.0642967224121
188,50.9757,9.4955940246582
189,50.9799,8.68240547180176
190,50.9892,5.21250009536743
191,50.9922,6.14539813995361
192,51.0008,6.72409677505493
193,51.0047,18.5614204406738
194,51.0109,8.50946617126465
195,51.0156,12.7024202346802
196,51.0239,33.5673332214355
197,51.0270,7.30513620376587
198,51.0323,7.53821849822998
199,51.0373,20.2083187103271
200,51.0449,8.12219429016113
201,51.0496,2.93842244148254
202,51.0526,2.7104594707489
203,51.0554,9.67745876312256
204,51.0603,6.15940523147583
205,51.0668,10.4421100616455
206,51.0761,3.478515625
207,51.0795,11.421422958374
208,51.0828,7.20800161361694
209,51.0923,8.8048038482666
210,51.1007,9.64575672149658
211,51.1031,10.6492261886597
212,51.1101,19.1205406188965
213,51.1137,9.64409351348877
214,51.1170,9.08032512664795
215,51.1201,5.93877172470093
216,51.1235,3.75879788398743
217,51.1304,9.86533546447754
218,51.1377,6.46207332611084
219,51.1471,15.2354030609131
220,51.1512,9.09146690368652
221,51.1544,4.77824068069458
222,51.1610,4.10956048965454
223,51.1679,9.07142162322998
224,51.1709,3.02264547348022
225,51.1750,15.1699781417847
226,51.1832,13.5456848144531
227,51.1889,9.50032520294189
228,51.1923,6.72109985351563
229,51.1952,3.6515052318573
230,51.2007,12.1967115402222
231,51.2164,14.2890138626099
232,51.2211,12.4901762008667
233,51.2259,15.5658292770386
234,51.2294,2.95175623893738
235,51.2339,23.0572166442871
236,51.2429,2.70156240463257
237,51.2468,3.08473825454712
238,51.2507,10.0752773284912
239,51.2581,6.429123878479
240,51.2623,2.74246215820313
241,51.2652,5.87455415725708
242,51.2721,14.9458084106445
243,51.2785,11.4698801040649
244,51.2843,21.5534343719482
245,51.2875,5.70889806747437
246,51.2914,13.1669368743896
247,51.2967,10.3397769927979
248,51.3116,7.05471658706665
249,51.3213,16.4500274658203
250,51.3281,7.91454935073853
251,51.3329,12.8788652420044
252,51.3390,2.96220779418945
253,51.3441,8.17809867858887
254,51.3464,15.7093524932861
255,51.3504,4.67101573944092
256,51.3545,15.2881526947021
257,51.3603,7.88291645050049
258,51.3658,5.08284044265747
259,51.3688,4.98487758636475
260,51.3859,14.0433177947998
261,51.3913,8.34255409240723
262,51.4000,9.13019752502441
263,51.4032,2.72026944160461
264,51.4070,4.43936157226563
265,51.4110,15.8908567428589
266,51.4157,10.037260055542
267,51.4194,11.9566240310669
268,51.4231,5.15517997741699
269,51.4288,16.1802024841309
270,51.4326,2.99788951873779
271,51.4359,10.4811849594116
272,51.4405,3.43370056152344
273,51.4449,20.7114181518555
274,51.4484,4.69952011108398
275,51.4515,2.68813920021057
276,51.4550,6.64248180389404
277,51.4621,3.01570510864258
278,51.4656,8.3906078338623
279,51.4750,9.1597728729248
280,51.4790,3.6376736164093
281,51.4831,14.3632307052612
282,51.4894,8.74185752868652
283,51.4937,2.65412616729736
284,51.5052,6.98017740249634
285,51.5085,10.2056074142456
286,51.5132,10.3762111663818
287,51.5177,18.4146118164063
288,51.5247,13.6537570953369
289,51.5290,7.27387094497681
290,51.5335,2.89100217819214
291,51.5379,23.9035301208496
292,51.5437,8.9335298538208
293,51.5488,9.81099700927734
294,51.5517,7.30263042449951
295,51.5549,15.4542446136475
296,51.5647,6.96021509170532
297,51.5693,5.56525135040283
298,51.5750,7.10418605804443
299,51.5779,4.38090801239014
300,51.5821,14.9586305618286
301,51.5892,4.87951374053955
302,51.5932,8.60884857177734
303,51.5992,5.78319072723389
304,51.6021,7.91272258758545
305,51.6068,3.55078125
306,51.6118,12.456883430481
307,51.6163,8.39541625976563
308,51.6218,6.50270843505859
309,51.6266,14.6206798553467
310,51.6341,13.3555202484131
311,51.6369,5.08319473266602
312,51.6409,4.69062519073486
313,51.6438,5.62075042724609
314,51.6503,4.19033908843994
315,51.6578,2.84004163742065
316,51.6609,6.09213924407959
317,51.6649,7.90389633178711
318,51.6709,13.7824764251709
319,51.6761,3.40767049789429
320,51.6812,16.7581119537354
321,51.6844,10.3427267074585
322,51.6890,6.12660217285156
323,51.6950,12.0779514312744
324,51.6991,9.89756488800049
325,51.7029,7.68099355697632
326,51.7058,3.37676000595093
327,51.7094,9.9910249710083
328,51.7130,2.50850701332092
329,51.7158,19.2244453430176
330,51.7208,11.8253335952759
331,51.7279,2.76580619812012
332,51.7313,4.36596012115479
333,51.7356,2.82505893707275
334,51.7399,12.0859127044678
335,51.7505,6.82018661499023
336,51.7555,7.64951848983765
337,51.7593,7.08522796630859
338,51.7625,2.95098042488098
339,51.7666,10.5574016571045
340,51.7708,13.2908477783203
341,51.7751,6.07982540130615
342,51.7792,12.0710554122925
343,51.7846,9.86774635314941
344,51.7912,16.1884574890137
345,51.7952,4.83392858505249
346,51.7980,6.1734037399292
347,51.8023,2.650390625
348,51.8079,8.39123821258545
349,51.8126,10.1841230392456
350,51.8189,2.78782892227173
351,51.8229,12.9064884185791
352,51.8272,3.06651449203491
353,51.8307,7.65092945098877
354,51.8354,10.4466791152954
355,51.8419,3.82400059700012
356,51.8456,9.14701271057129
357,51.8508,18.0845146179199
358,51.8563,13.3468217849731
359,51.8601,8.13462829589844
360,51.8642,6.32539510726929
361,51.8692,3.05137062072754
362,51.8762,10.0875520706177
363,51.8799,5.71787118911743
364,51.8834,2.77501344680786
365,51.8864,3.12625503540039
366,51.8925,11.1775951385498
367,51.9001,11.0641918182373
368,51.9050,15.6612529754639
369,51.9110,8.98484420776367
370,51.9167,9.80751895904541
371,51.9224,8.61354637145996
372,51.9305,18.9742622375488
373,51.9354,14.7512407302856
374,51.9387,2.72631597518921
375,51.9418,9.05190086364746
376,51.9486,12.4024095535278
377,51.9516,9.90337467193604
378,51.9560,7.33425283432007
379,51.9602,8.36310768127441
380,51.9634,4.72111034393311
381,51.9679,6.20672512054443
382,51.9731,12.1769666671753
383,51.9765,13.8698425292969
384,51.9787,4.54927921295166
385,51.9823,8.55153465270996
386,51.9938,8.52364921569824
387,51.9986,5.35418748855591
388,52.0025,2.71554899215698
389,52.0053,9.9381742477417
390,52.0119,3.33011627197266
391,52.0153,6.86074924468994
392,52.0204,9.72546863555908
393,52.0241,7.12798166275024
394,52.0290,21.9247913360596
395,52.0342,2.7751579284668
396,52.0370,21.4692325592041
397,52.0398,3.34380388259888
398,52.0430,2.66910147666931
399,52.0464,3.38255572319031
400,52.0494,3.16458344459534
401,52.0564,6.03910064697266
402,52.0593,8.30970764160156
403,52.0655,8.70145702362061
404,52.0720,8.83257102966309
405,52.0759,5.81874990463257
406,52.0798,10.819598197937
407,52.0937,12.4185352325439
408,52.0992,22.5376396179199
409,52.1055,5.95791864395142
410,52.1080,11.9812564849854
411,52.1138,18.1345863342285
412,52.1186,9.04513263702393
413,52.1269,8.46100330352783
414,52.1350,6.17127561569214
415,52.1405,5.53117513656616
416,52.1462,10.3668775558472
417,52.1511,12.0205278396606
418,52.1566,11.7911834716797
419,52.1640,4.86093759536743
420,52.1671,22.4132957458496
421,52.1744,11.9582462310791
422,52.1808,3.82862901687622
423,52.1875,5.92687892913818
424,52.1991,13.1729640960693
425,52.2050,7.48650074005127
426,52.2107,3.35781240463257
427,52.2168,12.5365447998047
428,52.2202,6.08317565917969
429,52.2235,4.04005193710327
430,52.2279,11.2298374176025
431,52.2349,11.9920501708984
432,52.2440,14.8613586425781
433,52.2489,11.5294628143311
434,52.2520,3.37161827087402
435,52.2564,5.41338443756104
436,52.2600,4.86365985870361
437,52.2633,8.70529365539551
438,52.2676,8.95077705383301
439,52.2701,17.6395301818848
440,52.2760,11.0223922729492
441,52.2868,9.12825775146484
442,52.2931,18.8437538146973
443,52.2995,8.57829093933105
444,52.3029,9.72735023498535
445,52.3110,10.3758420944214
446,52.3150,8.53140926361084
447,52.3195,9.61166095733643
448,52.3239,13.7387800216675
449,52.3303,9.47360515594482
450,52.3356,2.55651235580444
451,52.3419,17.0691299438477
452,52.3469,5.74684619903564
453,52.3561,4.57555675506592
454,52.3621,10.9652910232544
455,52.3713,10.0132265090942
456,52.3772,13.8883037567139
457,52.3807,6.94259881973267
458,52.3845,8.55374717712402
459,52.3879,12.0573921203613
460,52.3923,12.8656311035156
461,52.3974,6.24140977859497
462,52.4052,4.90033054351807
463,52.4083,3.28711199760437
464,52.4131,14.2350749969482
465,52.4224,10.4601345062256
466,52.4307,5.0591082572937
467,52.4354,8.79685974121094
468,52.4449,13.4588928222656
469,52.4516,11.9530353546143
470,52.4578,8.98106098175049
471,52.4626,7.44791269302368
472,52.4697,18.3432197570801
473,52.4736,7.6715407371521
474,52.4776,8.07144260406494
475,52.4799,12.3550930023193
476,52.4857,19.9779167175293
477,52.4902,15.6028232574463
478,52.4959,12.8178281784058
479,52.5009,9.85036754608154
480,52.5075,11.1655321121216
481,52.5163,11.0487766265869
482,52.5221,3.13661551475525
483,52.5258,4.22803020477295
484,52.5300,3.42526578903198
485,52.5372,5.02697134017944
486,52.5459,9.23072242736816
487,52.5540,4.50973415374756
488,52.5604,8.54626560211182
489,52.5641,7.5016622543335
490,52.5677,3.37120246887207
491,52.5707,3.61780095100403
492,52.5766,7.77811574935913
493,52.5819,10.259783744812
494,52.5868,6.49319744110107
495,52.5928,17.7459583282471
496,52.6021,18.9204521179199
497,52.6071,6.90459299087524
498,52.6132,16.1312980651855
499,52.6166,9.96672344207764
500,52.6197,13.0431823730469
501,52.6233,6.1189866065979
502,52.6275,7.87566089630127
503,52.6309,3.10414242744446
504,52.6437,7.34995126724243
505,52.6486,3.42275285720825
506,52.6556,7.53157806396484
507,52.6632,6.61518859863281
508,52.6659,10.2016181945801
509,52.6705,3.48772311210632
510,52.6773,16.724739074707
511,52.6825,11.3585329055786
512,52.6874,3.64979410171509
513,52.6915,7.58975696563721
514,52.6938,5.14292287826538
515,52.6980,2.69723558425903
516,52.7012,4.53625011444092
517,52.7044,9.39988136291504
518,52.7080,10.0715198516846
519,52.7132,5.69426250457764
520,52.7174,2.65977573394775
521,52.7204,10.8213300704956
522,52.7341,13.2086029052734
523,52.7370,6.29041194915771
524,52.7401,2.88450050354004
525,52.7438,3.67656254768372
526,52.7473,16.2883472442627
527,52.7517,8.76062297821045
528,52.7557,6.15160751342773
529,52.7591,4.36127138137817
530,52.7655,5.10134696960449
531,52.7715,3.31293106079102
532,52.7759,3.55163621902466
533,52.7794,6.29490041732788
534,52.7833,10.6721992492676
535,52.7871,3.08477258682251
536,52.7904,9.34325981140137
537,52.7961,12.6556587219238
538,52.8005,6.81481838226318
539,52.8042,20.0701446533203
540,52.8100,11.3319416046143
541,52.8157,2.98858690261841
542,52.8192,5.92479991912842
543,52.8223,9.70144176483154
544,52.8327,9.01898193359375
545,52.8375,9.79306983947754
546,52.8417,7.58137035369873
547,52.8452,6.06338357925415
548,52.8507,11.4944744110107
549,52.8542,8.85921955108643
550,52.8586,6.54463863372803
551,52.8661,13.5154571533203
552,52.8696,5.11477756500244
553,52.8836,13.1920299530029
554,52.8926,17.6274909973145
555,52.8970,16.9990119934082
556,52.9018,11.9436368942261
557,52.9050,3.00040197372437
558,52.9087,4.50049304962158
559,52.9120,3.23812341690063
560,52.9158,18.1243324279785
561,52.9198,14.6929521560669
562,52.9238,4.18102359771729
563,52.9274,9.08691501617432
564,52.9343,5.28125
565,52.9393,12.6471099853516
566,52.9454,14.4152479171753
567,52.9499,4.89450359344482
568,52.9548,5.75117492675781
569,52.9578,8.93012237548828
570,52.9623,9.32039165496826
571,52.9670,5.26192474365234
572,52.9724,6.26641082763672
573,52.9772,13.2318553924561
574,52.9824,4.7813024520874
575,52.9962,15.3670444488525
576,53.0020,5.98478317260742
577,53.0082,11.5713472366333
578,53.0124,10.7471656799316
579,53.0202,11.9965572357178
580,53.0238,2.66777777671814
581,53.0298,15.0353374481201
582,53.0351,7.36430215835571
583,53.0403,9.18122863769531
584,53.0469,15.3583040237427
585,53.0544,21.7778148651123
586,53.0652,10.7516555786133
587,53.0740,10.0772304534912
588,53.0793,4.67263317108154
589,53.0860,12.7616672515869
590,53.0907,2.98703241348267
591,53.0956,21.3570499420166
592,53.1091,2.56357836723328
593,53.1169,12.3642826080322
594,53.1201,5.43262386322021
595,53.1283,14.9573030471802
596,53.1321,17.6006145477295
597,53.1435,9.12556552886963
598,53.1485,3.16389417648315
599,53.1531,15.3530397415161
600,53.1589,4.41466045379639
601,53.1620,10.7193880081177
602,53.1714,3.31100034713745
603,53.1760,7.9409294128418
604,53.1844,9.39109039306641
605,53.1900,14.1134777069092
606,53.1962,10.6394891738892
607,53.2003,5.34156179428101
608,53.2080,10.1320009231567
609,53.2111,2.72389245033264
610,53.2158,6.97805881500244
611,53.2207,15.22900390625
612,53.2241,2.81316208839417
613,53.2277,6.72843790054321
614,53.2375,6.39681005477905
615,53.2441,4.56270837783813
616,53.2477,8.59741687774658
617,53.2529,7.16528797149658
618,53.2595,13.5886106491089
619,53.2638,15.322735786438
620,53.2676,11.1588020324707
621,53.2784,3.75041842460632
622,53.2878,16.3176383972168
623,53.2947,9.36313819885254
624,53.2997,6.20046615600586
625,53.3048,9.62327289581299
626,53.3113,10.5780458450317
627,53.3161,5.87807941436768
628,53.3215,9.18311309814453
629,53.3263,4.11198759078979
630,53.3296,2.97840261459351
631,53.3351,2.62069964408875
632,53.3385,11.260796546936
633,53.3428,4.85808849334717
634,53.3481,4.99223136901855
635,53.3543,5.50013732910156
636,53.3578,2.52300071716309
637,53.3656,3.03474283218384
638,53.3709,20.3650360107422
639,53.3787,15.7016296386719
640,53.3834,9.2752742767334
641,53.3866,19.2667198181152
642,53.3915,16.2739086151123
643,53.3962,11.0200529098511
644,53.3998,2.68964695930481
645,53.4103,10.6546039581299
646,53.4138,7.01299428939819
647,53.4184,8.79657173156738
648,53.4218,12.5766773223877
649,53.4268,3.05037713050842
650,53.4308,8.56942939758301
651,53.4352,5.67531776428223
652,53.4393,2.89053511619568
653,53.4427,14.1031036376953
654,53.4468,6.77519702911377
655,53.4544,6.25022792816162
656,53.4622,2.70359134674072
657,53.4718,8.66933155059814
658,53.4766,7.05004119873047
659,53.4816,2.69224381446838
660,53.4871,4.98472309112549
661,53.4920,20.1297721862793
662,53.4989,5.53065347671509
663,53.5040,5.26106739044189
664,53.5090,9.62969970703125
665,53.5243,7.21289825439453
666,53.5326,9.14979076385498
667,53.5358,2.85050225257874
668,53.5400,15.8652591705322
