#"-ESI Scan (rt: 0.046-1.021 min, 81 scans) Frag=175.0V 8.d "
#Point,X(Thompsons),Y(Counts)
0,50.0054,7.28826665878296
1,50.0101,16.8573379516602
2,50.0147,14.1978988647461
3,50.0200,18.8479633331299
4,50.0242,9.93616199493408
5,50.0299,15.4614343643188
6,50.0341,5.00687980651855
7,50.0375,4.95535898208618
8,50.0445,13.9484262466431
9,50.0514,14.1796817779541
10,50.0596,9.44600868225098
11,50.0657,17.8338375091553
12,50.0701,18.4010467529297
13,50.0736,9.41109943389893
14,50.0772,7.71786689758301
15,50.0836,11.4675807952881
16,50.0866,11.1403846740723
17,50.0917,11.3806600570679
18,50.0952,5.72047710418701
19,50.0979,2.70982575416565
20,50.1040,4.58026933670044
21,50.1124,16.3817119598389
22,50.1169,9.67944049835205
23,50.1227,3.12397122383118
24,50.1283,4.10599899291992
25,50.1312,6.02058458328247
26,50.1351,15.2527303695679
27,50.1379,7.27440500259399
28,50.1448,5.1613917350769
29,50.1484,12.8070583343506
30,50.1508,4.91083908081055
31,50.1556,15.0617914199829
32,50.1608,7.00697612762451
33,50.1677,6.86925745010376
34,50.1722,9.3112325668335
35,50.1765,8.67534828186035
36,50.1822,16.4736633300781
37,50.1862,12.1052017211914
38,50.1941,20.6898078918457
39,50.1961,15.4437875747681
40,50.1996,21.9553184509277
41,50.2056,9.05536270141602
42,50.2093,5.23047685623169
43,50.2139,10.5889577865601
44,50.2186,8.36170196533203
45,50.2290,12.665244102478
46,50.2361,4.69838571548462
47,50.2409,22.3590850830078
48,50.2462,5.10343837738037
49,50.2488,13.3832559585571
50,50.2546,5.93766403198242
51,50.2653,3.20495867729187
52,50.2693,8.40911293029785
53,50.2733,7.33240175247192
54,50.2846,9.85831928253174
55,50.2945,10.9197130203247
56,50.2993,14.9353494644165
57,50.3082,11.0835409164429
58,50.3149,19.0514831542969
59,50.3221,2.61889147758484
60,50.3258,10.8307294845581
61,50.3290,6.83742570877075
62,50.3332,15.2351045608521
63,50.3360,10.6119632720947
64,50.3394,9.30232048034668
65,50.3446,8.30959892272949
66,50.3486,9.042067527771
67,50.3600,2.89162135124207
68,50.3708,5.35816287994385
69,50.3787,20.1211967468262
70,50.3834,9.08136177062988
71,50.3866,4.75521039962769
72,50.3935,6.15442514419556
73,50.4006,6.45673608779907
74,50.4048,13.0845966339111
75,50.4126,10.9606018066406
76,50.4169,3.95046401023865
77,50.4244,5.51280546188354
78,50.4284,2.96310329437256
79,50.4328,9.96273803710938
80,50.4369,6.18639230728149
81,50.4426,5.978346824646
82,50.4512,26.4410228729248
83,50.4557,7.04421043395996
84,50.4653,10.1422872543335
85,50.4701,9.11762046813965
86,50.4728,9.88949966430664
87,50.4764,7.79118680953979
88,50.4803,3.80693626403809
89,50.4884,11.6018104553223
90,50.4925,9.91705799102783
91,50.4958,7.84323167800903
92,50.5034,18.6034412384033
93,50.5079,19.2685585021973
94,50.5177,8.41324615478516
95,50.5214,15.417760848999
96,50.5265,15.3616104125977
97,50.5329,4.79108095169067
98,50.5401,9.19054126739502
99,50.5438,5.03987789154053
100,50.5512,13.3376226425171
101,50.5561,9.55508708953857
102,50.5645,3.39871978759766
103,50.5693,5.56013202667236
104,50.5722,3.53402256965637
105,50.5754,2.66049385070801
106,50.5793,3.35851860046387
107,50.5845,16.18190574646
108,50.5904,19.1934280395508
109,50.5969,6.61539125442505
110,50.6010,5.8901252746582
111,50.6081,17.3182792663574
112,50.6130,6.40043878555298
113,50.6237,8.61807918548584
114,50.6278,7.66623544692993
115,50.6330,10.4019289016724
116,50.6369,7.95246028900146
117,50.6465,24.1910076141357
118,50.6510,5.18860292434692
119,50.6539,3.48941802978516
120,50.6568,4.52200841903687
121,50.6615,10.7406806945801
122,50.6654,6.85574245452881
123,50.6689,3.2712254524231
124,50.6724,5.66598415374756
125,50.6810,6.50634670257568
126,50.6841,6.28935623168945
127,50.6959,10.9232501983643
128,50.6999,17.5688667297363
129,50.7057,20.1199340820313
130,50.7124,9.22254276275635
131,50.7146,9.12003993988037
132,50.7176,18.0968418121338
133,50.7211,6.91749715805054
134,50.7262,19.5775337219238
135,50.7326,14.892596244812
136,50.7379,4.85193300247192
137,50.7479,18.2479343414307
138,50.7535,8.34623622894287
139,50.7598,5.33632612228394
140,50.7648,2.9450056552887
141,50.7693,10.9147872924805
142,50.7731,8.02984523773193
143,50.7838,5.34290552139282
144,50.7895,18.7595672607422
145,50.7942,15.2027149200439
146,50.7988,10.9037246704102
147,50.8057,13.6414451599121
148,50.8087,8.84578227996826
149,50.8146,7.02620458602905
150,50.8186,6.74989461898804
151,50.8259,13.4821758270264
152,50.8301,5.43289375305176
153,50.8393,16.4874362945557
154,50.8504,7.90695905685425
155,50.8544,16.530797958374
156,50.8606,15.2078046798706
157,50.8678,9.13860416412354
158,50.8717,9.21931838989258
159,50.8763,13.5937576293945
160,50.8834,14.3952617645264
161,50.8892,11.3090410232544
162,50.8991,4.17796325683594
163,50.9075,20.6848735809326
164,50.9117,5.93940687179565
165,50.9198,21.1011390686035
166,50.9271,10.3926010131836
167,50.9315,22.4164257049561
168,50.9411,3.00296521186829
169,50.9441,14.6827545166016
170,50.9490,7.84368085861206
171,50.9537,18.2147235870361
172,50.9593,5.07427978515625
173,50.9622,10.4804029464722
174,50.9683,4.73542261123657
175,50.9715,5.13673162460327
176,50.9771,10.1079654693604
177,50.9809,6.67528390884399
178,50.9841,10.4564590454102
179,50.9938,11.0970764160156
180,50.9983,3.17447924613953
181,51.0016,3.50347638130188
182,51.0052,12.221734046936
183,51.0133,7.46831369400024
184,51.0166,2.72647285461426
185,51.0202,7.83076143264771
186,51.0241,63.3350563049316
187,51.0286,12.0196189880371
188,51.0347,3.33603954315186
189,51.0411,7.21115732192993
190,51.0444,7.75324153900146
191,51.0505,12.5576190948486
192,51.0543,5.08987760543823
193,51.0606,12.3828325271606
194,51.0695,16.6344127655029
195,51.0768,11.8038864135742
196,51.0801,6.36459398269653
197,51.0870,11.0413951873779
198,51.0912,9.53370380401611
199,51.0960,9.76978778839111
200,51.0990,5.16842842102051
201,51.1018,10.7209033966064
202,51.1100,8.56759548187256
203,51.1162,2.69563341140747
204,51.1231,2.87209939956665
205,51.1314,14.3084011077881
206,51.1393,7.82313537597656
207,51.1443,6.72900533676147
208,51.1471,4.56790113449097
209,51.1504,12.6742925643921
210,51.1551,23.4993133544922
211,51.1587,8.73521327972412
212,51.1638,3.31660175323486
213,51.1680,15.7667474746704
214,51.1768,3.33367466926575
215,51.1797,8.258131980896
216,51.1862,8.9268856048584
217,51.1904,5.64272880554199
218,51.1945,22.0352325439453
219,51.1976,3.50686311721802
220,51.2025,15.049373626709
221,51.2082,3.50925922393799
222,51.2143,16.9383659362793
223,51.2201,19.7085723876953
224,51.2239,6.32343196868896
225,51.2276,12.0705137252808
226,51.2402,5.30493068695068
227,51.2481,3.14525461196899
228,51.2551,8.25362682342529
229,51.2601,8.40067481994629
230,51.2632,14.2040205001831
231,51.2660,2.87625455856323
232,51.2700,6.59308767318726
233,51.2747,2.66011595726013
234,51.2851,15.5541582107544
235,51.2911,6.67384624481201
236,51.2988,19.321216583252
237,51.3059,12.4083919525146
238,51.3149,8.40429496765137
239,51.3244,6.02377414703369
240,51.3282,3.59478449821472
241,51.3331,2.56940841674805
242,51.3369,11.0370607376099
243,51.3415,11.850380897522
244,51.3477,6.04244899749756
245,51.3523,19.8096370697021
246,51.3550,2.974369764328
247,51.3578,5.54133796691895
248,51.3617,17.6903686523438
249,51.3666,13.5087947845459
250,51.3769,9.35723686218262
251,51.3810,9.03654956817627
252,51.3890,6.48968505859375
253,51.3966,18.9424591064453
254,51.4035,3.01602578163147
255,51.4097,11.8254241943359
256,51.4193,7.33560609817505
257,51.4268,2.71215057373047
258,51.4312,7.93978071212769
259,51.4367,17.4418182373047
260,51.4427,20.5592136383057
261,51.4465,10.6398410797119
262,51.4493,2.58993363380432
263,51.4546,27.2694778442383
264,51.4606,2.96297359466553
265,51.4653,8.59553813934326
266,51.4711,19.6826972961426
267,51.4764,10.9677762985229
268,51.4824,2.92839503288269
269,51.4868,11.9503040313721
270,51.4899,5.98934841156006
271,51.5016,7.32956743240356
272,51.5056,12.3696441650391
273,51.5166,12.5459899902344
274,51.5195,3.04239559173584
275,51.5254,20.8947505950928
276,51.5290,4.23763847351074
277,51.5323,22.6498126983643
278,51.5362,11.107497215271
279,51.5426,6.43450832366943
280,51.5479,20.5829677581787
281,51.5510,2.91635203361511
282,51.5557,12.49880027771
283,51.5600,5.77725219726563
284,51.5676,5.02491188049316
285,51.5713,6.57268142700195
286,51.5783,11.5246629714966
287,51.5845,27.7223434448242
288,51.5898,14.1627426147461
289,51.5931,4.78379726409912
290,51.6027,13.4741239547729
291,51.6070,16.0991058349609
292,51.6119,16.7901096343994
293,51.6160,5.96899652481079
294,51.6195,7.11964464187622
295,51.6238,4.87202167510986
296,51.6323,14.073055267334
297,51.6404,16.8088512420654
298,51.6439,10.3379926681519
299,51.6477,2.98441743850708
300,51.6514,4.95423460006714
301,51.6551,13.6929235458374
302,51.6691,11.7162981033325
303,51.6743,18.0523166656494
304,51.6874,19.0329990386963
305,51.6926,11.5598831176758
306,51.7046,8.98014354705811
307,51.7076,6.41657161712646
308,51.7128,19.2287616729736
309,51.7201,8.77763938903809
310,51.7272,11.5451498031616
311,51.7315,8.60064792633057
312,51.7386,14.219048500061
313,51.7425,20.4227676391602
314,51.7497,16.3466339111328
315,51.7558,10.4885845184326
316,51.7602,18.5717849731445
317,51.7654,9.93227672576904
318,51.7753,6.29186201095581
319,51.7779,8.60748863220215
320,51.7822,6.50805902481079
321,51.7855,10.8195571899414
322,51.7925,12.9993019104004
323,51.7964,7.67042589187622
324,51.8131,9.27124309539795
325,51.8165,5.75504684448242
326,51.8257,13.5708341598511
327,51.8309,13.3648061752319
328,51.8462,25.4164371490479
329,51.8514,3.00352740287781
330,51.8556,20.5681133270264
331,51.8606,2.66961002349854
332,51.8652,13.8260335922241
333,51.8758,5.45970630645752
334,51.8801,6.2349681854248
335,51.8853,5.87503147125244
336,51.8923,34.3944244384766
337,51.8991,7.47051239013672
338,51.9036,19.0525703430176
339,51.9135,12.419472694397
340,51.9169,2.91167736053467
341,51.9200,6.13208675384521
342,51.9231,2.92671394348145
343,51.9283,3.27164554595947
344,51.9397,12.881329536438
345,51.9441,20.733341217041
346,51.9487,12.8810234069824
347,51.9526,8.11279392242432
348,51.9647,6.71995878219604
349,51.9703,3.76507234573364
350,51.9777,2.64560127258301
351,51.9807,2.48361825942993
352,51.9877,18.2908172607422
353,51.9926,9.05250072479248
354,51.9961,17.1879653930664
355,52.0005,3.46688342094421
356,52.0035,3.55921697616577
357,52.0100,9.12174510955811
358,52.0195,22.5291862487793
359,52.0332,6.76592874526978
360,52.0372,2.80110383033752
361,52.0422,5.86516332626343
362,52.0457,2.59472250938416
363,52.0503,16.3150577545166
364,52.0562,8.90939712524414
365,52.0624,2.64228391647339
366,52.0675,7.52689599990845
367,52.0749,10.255820274353
368,52.0863,5.61828231811523
369,52.0902,15.1648235321045
370,52.0932,8.44150352478027
371,52.0973,2.80544114112854
372,52.1025,13.2368221282959
373,52.1060,2.7278413772583
374,52.1101,5.85831451416016
375,52.1130,12.6542663574219
376,52.1166,2.56839561462402
377,52.1225,7.99808311462402
378,52.1262,6.64818429946899
379,52.1303,4.99879217147827
380,52.1341,4.27536487579346
381,52.1418,10.0610446929932
382,52.1550,3.17520332336426
383,52.1600,5.16585206985474
384,52.1677,12.3844022750854
385,52.1719,9.43898868560791
386,52.1772,14.944393157959
387,52.1836,10.2304887771606
388,52.1877,2.60644435882568
389,52.1905,2.99620413780212
390,52.1960,17.6679840087891
391,52.2017,10.5433549880981
392,52.2104,14.641393661499
393,52.2173,14.6039371490479
394,52.2219,4.07276678085327
395,52.2272,17.1093845367432
396,52.2336,10.1201515197754
397,52.2388,19.742546081543
398,52.2452,17.2467575073242
399,52.2490,13.8051090240479
400,52.2574,16.4791297912598
401,52.2627,2.61613059043884
402,52.2653,18.0448265075684
403,52.2700,5.80551433563232
404,52.2751,5.62098169326782
405,52.2824,20.087797164917
406,52.2872,13.1805267333984
407,52.2952,15.6337270736694
408,52.2984,13.8821220397949
409,52.3066,16.0699768066406
410,52.3105,11.6292943954468
411,52.3161,2.79019689559937
412,52.3275,10.1208982467651
413,52.3312,13.0243835449219
414,52.3358,17.1585731506348
415,52.3407,4.75506353378296
416,52.3492,11.7031049728394
417,52.3568,2.95717144012451
418,52.3603,3.77432131767273
419,52.3656,4.75034856796265
420,52.3698,12.992317199707
421,52.3737,18.5623950958252
422,52.3801,4.71966648101807
423,52.3830,3.55008602142334
424,52.3865,18.7111473083496
425,52.3907,5.97624063491821
426,52.3936,4.87662649154663
427,52.3966,5.58000135421753
428,52.4021,10.6108160018921
429,52.4153,6.14279222488403
430,52.4178,8.15360069274902
431,52.4232,9.96311855316162
432,52.4299,6.544593334198
433,52.4341,9.74427795410156
434,52.4389,5.08779287338257
435,52.4433,2.73982262611389
436,52.4475,9.9368782043457
437,52.4522,10.4110088348389
438,52.4561,6.26866912841797
439,52.4669,11.2066335678101
440,52.4698,3.95430564880371
441,52.4739,4.1607928276062
442,52.4771,12.4540853500366
443,52.4830,2.90604281425476
444,52.4872,7.96700096130371
445,52.4965,3.71891212463379
446,52.5009,12.0979261398315
447,52.5069,17.7571754455566
448,52.5130,19.8145427703857
449,52.5176,7.6898946762085
450,52.5255,12.7645578384399
451,52.5313,24.4965972900391
452,52.5382,8.23905277252197
453,52.5424,5.67528486251831
454,52.5453,3.28743124008179
455,52.5499,13.6313962936401
456,52.5554,9.79304695129395
457,52.5591,3.24224138259888
458,52.5636,15.2146902084351
459,52.5692,6.30906772613525
460,52.5756,15.9104270935059
461,52.5805,13.5957117080688
462,52.5840,19.8025321960449
463,52.5875,2.81788325309753
464,52.5924,6.68137216567993
465,52.5988,4.07009506225586
466,52.6045,8.23418235778809
467,52.6089,3.56823086738586
468,52.6210,12.6025390625
469,52.6239,9.03870105743408
470,52.6296,22.771354675293
471,52.6361,12.8345460891724
472,52.6395,18.9884471893311
473,52.6446,3.390629529953
474,52.6494,4.75605392456055
475,52.6538,2.89267230033875
476,52.6629,7.99375200271606
477,52.6677,12.0908937454224
478,52.6709,6.63657855987549
479,52.6755,8.43556690216064
480,52.6797,10.9359874725342
481,52.6872,3.8606424331665
482,52.6909,8.89362812042236
483,52.6963,3.12455272674561
484,52.7025,8.23893642425537
485,52.7062,8.13274192810059
486,52.7103,10.3053417205811
487,52.7133,6.6845817565918
488,52.7233,8.97779560089111
489,52.7345,5.6835355758667
490,52.7391,20.6440105438232
491,52.7439,8.48565101623535
492,52.7486,11.6062955856323
493,52.7575,2.64827442169189
494,52.7644,12.5845060348511
495,52.7685,6.92917728424072
496,52.7754,10.9482879638672
497,52.7818,11.1612491607666
498,52.7855,4.10848140716553
499,52.7891,20.7639923095703
500,52.7918,3.18540811538696
501,52.8050,17.3822002410889
502,52.8086,2.91088390350342
503,52.8138,10.7232141494751
504,52.8172,5.56147527694702
505,52.8234,15.4495716094971
506,52.8267,3.52801513671875
507,52.8330,5.74250411987305
508,52.8359,15.2380895614624
509,52.8393,13.793755531311
510,52.8437,8.46491718292236
511,52.8498,8.36774826049805
512,52.8531,9.07293128967285
513,52.8604,12.3385038375854
514,52.8704,4.31281423568726
515,52.8741,4.63393449783325
516,52.8783,7.19391870498657
517,52.8890,21.5180912017822
518,52.8962,19.0661144256592
519,52.9019,2.59964513778687
520,52.9083,11.5839900970459
521,52.9136,4.92806005477905
522,52.9209,6.82547569274902
523,52.9242,9.84077072143555
524,52.9278,5.66130256652832
525,52.9316,5.64717483520508
526,52.9349,2.47618770599365
527,52.9387,4.07846641540527
528,52.9427,22.0860481262207
529,52.9492,11.157154083252
530,52.9542,5.65783071517944
531,52.9590,2.86510848999023
532,52.9680,15.0035352706909
533,52.9718,3.04801082611084
534,52.9758,3.06719303131104
535,52.9791,8.53652763366699
536,52.9856,8.58399677276611
537,52.9888,2.90451049804688
538,52.9937,10.6700296401978
539,53.0000,4.11571359634399
540,53.0031,9.45328903198242
541,53.0090,3.91705632209778
542,53.0183,9.26299953460693
543,53.0248,8.02593898773193
544,53.0289,10.7946605682373
545,53.0316,7.63267993927002
546,53.0360,12.3453159332275
547,53.0402,23.4519462585449
548,53.0503,8.46314525604248
549,53.0601,7.1457986831665
550,53.0688,8.11585521697998
551,53.0745,11.4716234207153
552,53.0809,7.64946174621582
553,53.0851,4.9758448600769
554,53.0910,6.17366218566895
555,53.0938,3.98453426361084
556,53.0990,16.0952739715576
557,53.1044,10.8901815414429
558,53.1090,5.66373682022095
559,53.1131,13.4038372039795
560,53.1196,3.31334948539734
561,53.1317,31.6820964813232
562,53.1384,13.1084690093994
563,53.1445,4.36088180541992
564,53.1474,2.78770184516907
565,53.1608,4.08156108856201
566,53.1663,16.6845817565918
567,53.1692,2.59481477737427
568,53.1749,16.5002193450928
569,53.1780,11.627610206604
570,53.1834,9.68744277954102
571,53.1876,7.72220849990845
572,53.1902,6.19418621063232
573,53.1945,7.94531869888306
574,53.1986,14.9960231781006
575,53.2040,8.66836547851563
576,53.2114,12.5488538742065
577,53.2244,3.76296281814575
578,53.2284,3.77422261238098
579,53.2318,9.47835445404053
580,53.2395,3.33030200004578
581,53.2515,10.5283126831055
582,53.2575,7.88931369781494
583,53.2641,16.883373260498
584,53.2707,7.00003147125244
585,53.2764,13.851110458374
586,53.2836,13.8693819046021
587,53.2887,18.3790512084961
588,53.2929,4.59421682357788
589,53.3005,9.38685703277588
590,53.3038,7.49765586853027
591,53.3076,6.05491733551025
592,53.3108,21.6606884002686
593,53.3141,5.36512041091919
594,53.3169,11.6536893844604
595,53.3255,23.4107627868652
596,53.3321,20.31321144104
597,53.3372,12.694953918457
598,53.3450,18.3863887786865
599,53.3547,4.00214529037476
600,53.3579,7.55421447753906
601,53.3611,2.82273411750793
602,53.3689,23.3388385772705
603,53.3818,12.6956987380981
604,53.3850,4.69977474212646
605,53.3882,3.50495433807373
606,53.3926,13.8061647415161
607,53.3984,15.5182266235352
608,53.4054,6.94527864456177
609,53.4154,13.873387336731
610,53.4196,11.4196481704712
611,53.4248,23.9943466186523
612,53.4276,7.16004180908203
613,53.4322,17.0769023895264
614,53.4366,3.58267211914063
615,53.4401,5.07305479049683
616,53.4438,3.12020945549011
617,53.4518,8.42961406707764
618,53.4551,13.7815637588501
619,53.4641,7.9404091835022
620,53.4691,7.16373634338379
621,53.4761,10.5286445617676
622,53.4809,15.8789873123169
623,53.4893,2.80994772911072
624,53.4972,8.93110179901123
625,53.5021,3.39856910705566
626,53.5067,8.02715110778809
627,53.5109,11.463080406189
628,53.5174,2.9503161907196
629,53.5203,21.8464317321777
630,53.5259,9.74375820159912
631,53.5309,17.148286819458
632,53.5373,12.7909507751465
633,53.5406,5.3386869430542
634,53.5441,3.71710014343262
635,53.5473,29.9243564605713
636,53.5525,10.0804414749146
637,53.5581,5.45389938354492
638,53.5665,7.03387832641602
639,53.5697,2.62802267074585
640,53.5730,4.12803983688354
641,53.5767,2.92158675193787
642,53.5804,8.23986434936523
643,53.5867,7.48950815200806
644,53.5921,3.37308049201965
645,53.5971,3.19038343429565
646,53.6009,5.4935474395752
647,53.6053,8.72713279724121
648,53.6107,10.7337598800659
649,53.6148,2.94272971153259
650,53.6176,19.1131763458252
651,53.6242,6.84703397750854
652,53.6266,7.42932939529419
653,53.6318,12.9517879486084
654,53.6378,23.0858020782471
655,53.6425,2.67462635040283
656,53.6483,13.500922203064
657,53.6539,13.060959815979
658,53.6578,8.86834812164307
659,53.6626,7.60231828689575
660,53.6656,2.90737414360046
661,53.6694,24.8109302520752
662,53.6752,5.32348823547363
663,53.6802,4.72781658172607
664,53.6850,3.5882089138031
665,53.6915,4.34036731719971
666,53.6974,14.300892829895
667,53.7027,5.95101308822632
668,53.7065,2.90573406219482
