#"-ESI Scan (rt: 0.051-0.990 min, 79 scans) Frag=175.0V 8B.d "
#Point,X(Thompsons),Y(Counts)
0,50.0040,8.91325092315674
1,50.0083,6.82476186752319
2,50.0111,3.31170892715454
3,50.0154,14.6309595108032
4,50.0186,12.4866914749146
5,50.0218,4.80537986755371
6,50.0278,18.1880664825439
7,50.0353,15.2621650695801
8,50.0380,3.61629748344421
9,50.0409,5.85795211791992
10,50.0465,6.40655374526978
11,50.0549,3.58442783355713
12,50.0601,5.66968870162964
13,50.0637,3.30523610115051
14,50.0731,10.6934032440186
15,50.0785,6.98505020141602
16,50.0836,6.9617657661438
17,50.0873,7.06880617141724
18,50.0949,13.4102029800415
19,50.0987,2.98435306549072
20,50.1056,14.0407218933105
21,50.1165,2.66883158683777
22,50.1203,12.7329740524292
23,50.1259,8.44759941101074
24,50.1287,11.786060333252
25,50.1336,4.20551872253418
26,50.1381,17.6285762786865
27,50.1467,28.1888446807861
28,50.1504,7.81387233734131
29,50.1550,6.28373718261719
30,50.1599,21.0041790008545
31,50.1667,10.7451114654541
32,50.1702,2.92328500747681
33,50.1745,11.4234714508057
34,50.1807,12.2487449645996
35,50.1840,15.5497417449951
36,50.1906,4.60928916931152
37,50.1932,5.88986921310425
38,50.1971,13.0304584503174
39,50.2031,14.0982446670532
40,50.2080,15.1959981918335
41,50.2125,9.90467834472656
42,50.2213,6.41338682174683
43,50.2275,12.3356781005859
44,50.2332,20.6083126068115
45,50.2366,2.75984954833984
46,50.2413,18.7610111236572
47,50.2458,10.5954570770264
48,50.2507,8.36647701263428
49,50.2533,35.8207244873047
50,50.2610,13.5322313308716
51,50.2685,9.22116851806641
52,50.2732,14.1236772537231
53,50.2787,9.13424015045166
54,50.2826,9.8838939666748
55,50.2897,8.48805904388428
56,50.2977,8.29042339324951
57,50.2999,2.56652450561523
58,50.3043,12.8262538909912
59,50.3103,5.56292915344238
60,50.3140,3.55580496788025
61,50.3170,5.23613166809082
62,50.3201,3.49090504646301
63,50.3230,28.2035140991211
64,50.3271,14.5937547683716
65,50.3337,10.6114654541016
66,50.3384,9.40044593811035
67,50.3448,3.68273782730103
68,50.3504,5.53555631637573
69,50.3543,14.6932973861694
70,50.3623,14.6707715988159
71,50.3662,12.0883865356445
72,50.3691,4.95809602737427
73,50.3718,2.91015481948853
74,50.3770,9.84810543060303
75,50.3821,19.5222282409668
76,50.3879,12.9049892425537
77,50.3973,17.4496517181396
78,50.4031,19.1203060150146
79,50.4105,18.1564788818359
80,50.4174,13.3334455490112
81,50.4195,13.2115631103516
82,50.4244,7.69954109191895
83,50.4288,39.487361907959
84,50.4382,10.3393316268921
85,50.4432,6.8139271736145
86,50.4463,8.07765102386475
87,50.4494,5.98171901702881
88,50.4538,6.03713083267212
89,50.4574,15.2671718597412
90,50.4631,8.70105171203613
91,50.4691,22.4237766265869
92,50.4728,3.3890392780304
93,50.4781,7.32241725921631
94,50.4809,6.80743646621704
95,50.4860,7.32933712005615
96,50.4935,5.32318544387817
97,50.4994,14.3162050247192
98,50.5073,4.08189392089844
99,50.5119,3.95659422874451
100,50.5178,19.229398727417
101,50.5226,12.7982025146484
102,50.5278,8.30660533905029
103,50.5332,13.8578271865845
104,50.5375,8.81553363800049
105,50.5427,6.50226068496704
106,50.5488,5.2697319984436
107,50.5562,10.651291847229
108,50.5596,2.60903334617615
109,50.5633,5.68420314788818
110,50.5677,7.24805307388306
111,50.5705,5.89408445358276
112,50.5733,5.73266077041626
113,50.5778,12.8996381759644
114,50.5820,11.4932289123535
115,50.5855,3.69746851921082
116,50.5936,5.89640474319458
117,50.5995,6.72281932830811
118,50.6031,11.9842233657837
119,50.6091,14.8724164962769
120,50.6116,11.5980319976807
121,50.6186,19.1210842132568
122,50.6257,23.3568077087402
123,50.6312,16.2543315887451
124,50.6359,6.72083044052124
125,50.6396,5.38659477233887
126,50.6431,5.00315189361572
127,50.6464,8.78956604003906
128,50.6514,2.91665863990784
129,50.6553,2.76589465141296
130,50.6605,12.0666675567627
131,50.6641,12.5423278808594
132,50.6715,10.3801221847534
133,50.6757,8.94720840454102
134,50.6784,5.10359287261963
135,50.6834,4.22963047027588
136,50.6878,5.41748046875
137,50.6915,3.25219058990479
138,50.6945,17.8960647583008
139,50.6978,10.5962600708008
140,50.7022,6.634850025177
141,50.7051,7.31471490859985
142,50.7101,7.04217529296875
143,50.7139,10.3872900009155
144,50.7194,5.05173826217651
145,50.7245,8.52405738830566
146,50.7278,8.53670883178711
147,50.7401,15.3332176208496
148,50.7465,8.08974170684814
149,50.7510,3.07315111160278
150,50.7555,13.4004783630371
151,50.7611,15.0040016174316
152,50.7655,5.16900157928467
153,50.7697,3.46996760368347
154,50.7728,20.7918682098389
155,50.7755,2.99442768096924
156,50.7812,14.5669002532959
157,50.7887,6.99187231063843
158,50.7950,15.6041812896729
159,50.8023,14.8980045318604
160,50.8076,21.3957023620605
161,50.8119,5.91271257400513
162,50.8170,9.67376041412354
163,50.8219,5.76743459701538
164,50.8265,5.61696577072144
165,50.8294,2.85147571563721
166,50.8332,5.69261360168457
167,50.8361,2.85595178604126
168,50.8395,7.65552616119385
169,50.8446,12.1552391052246
170,50.8495,15.2493696212769
171,50.8544,10.889084815979
172,50.8593,7.50600147247314
173,50.8627,3.05383062362671
174,50.8660,6.76788234710693
175,50.8697,3.33301448822021
176,50.8751,5.73211050033569
177,50.8793,18.113618850708
178,50.8880,8.97999572753906
179,50.8925,7.03369855880737
180,50.8969,3.50371384620667
181,50.9027,2.76540803909302
182,50.9100,17.5401363372803
183,50.9219,3.48181223869324
184,50.9281,13.7103891372681
185,50.9324,10.5250463485718
186,50.9408,5.74190759658813
187,50.9471,14.9966373443604
188,50.9507,9.92317295074463
189,50.9546,8.59762573242188
190,50.9590,5.26604890823364
191,50.9624,5.72172975540161
192,50.9656,3.09385418891907
193,50.9711,12.952467918396
194,50.9749,3.55984497070313
195,50.9788,2.7360737323761
196,50.9828,10.9194068908691
197,50.9866,15.7718553543091
198,50.9956,6.09417200088501
199,51.0003,3.31719398498535
200,51.0074,11.9274129867554
201,51.0139,9.95700073242188
202,51.0234,29.7427444458008
203,51.0274,9.53873348236084
204,51.0313,3.12785315513611
205,51.0342,13.6676177978516
206,51.0428,6.70730638504028
207,51.0501,3.18200898170471
208,51.0543,17.068078994751
209,51.0577,11.2053184509277
210,51.0611,14.1712045669556
211,51.0676,24.9660720825195
212,51.0744,6.26225662231445
213,51.0773,17.960054397583
214,51.0827,13.8611841201782
215,51.0888,8.58949947357178
216,51.0918,3.41545581817627
217,51.0947,6.05145931243896
218,51.0989,11.9304103851318
219,51.1051,10.7208824157715
220,51.1100,16.3394355773926
221,51.1154,8.60173988342285
222,51.1185,7.44659519195557
223,51.1222,7.42724466323853
224,51.1268,13.1167039871216
225,51.1317,5.95889616012573
226,51.1370,6.33050775527954
227,51.1513,6.58319187164307
228,51.1581,2.54462742805481
229,51.1614,4.59060287475586
230,51.1685,7.07206153869629
231,51.1754,2.83880543708801
232,51.1794,3.98507618904114
233,51.1846,21.8626480102539
234,51.1965,15.9718837738037
235,51.2003,13.0268287658691
236,51.2107,3.45439314842224
237,51.2139,9.01627063751221
238,51.2218,8.73721694946289
239,51.2248,13.7742166519165
240,51.2302,18.7048377990723
241,51.2356,5.97556495666504
242,51.2393,24.5456943511963
243,51.2434,18.8608951568604
244,51.2475,3.08814334869385
245,51.2509,4.93145799636841
246,51.2549,8.76387500762939
247,51.2597,7.33472776412964
248,51.2655,2.64495706558228
249,51.2767,9.90125465393066
250,51.2824,11.2075939178467
251,51.2861,10.0873394012451
252,51.2891,10.6467094421387
253,51.3001,3.51140189170837
254,51.3045,4.98242282867432
255,51.3080,2.65429949760437
256,51.3143,15.3855504989624
257,51.3190,16.4628448486328
258,51.3249,6.33871793746948
259,51.3336,9.92518520355225
260,51.3369,4.66922330856323
261,51.3413,3.48224759101868
262,51.3465,5.95076513290405
263,51.3496,7.24346446990967
264,51.3530,15.2341899871826
265,51.3592,16.8533420562744
266,51.3638,9.98876953125
267,51.3683,3.30153226852417
268,51.3737,5.01904821395874
269,51.3788,5.99162530899048
270,51.3860,5.24585485458374
271,51.3891,15.2784652709961
272,51.4011,19.5847606658936
273,51.4048,5.17851781845093
274,51.4084,5.47700262069702
275,51.4141,3.33248949050903
276,51.4169,17.9226684570313
277,51.4241,20.256046295166
278,51.4271,21.0780963897705
279,51.4310,5.52664852142334
280,51.4359,7.47303581237793
281,51.4402,13.2328977584839
282,51.4441,8.55535125732422
283,51.4482,2.5935320854187
284,51.4524,11.6283416748047
285,51.4564,2.82786202430725
286,51.4599,3.95253157615662
287,51.4627,7.7328929901123
288,51.4712,12.3122615814209
289,51.4788,2.56969380378723
290,51.4828,10.218092918396
291,51.4871,12.2340068817139
292,51.4922,19.761962890625
293,51.4968,11.3106870651245
294,51.5010,5.71634101867676
295,51.5061,3.01864123344421
296,51.5108,5.05797338485718
297,51.5196,8.263014793396
298,51.5290,9.75400638580322
299,51.5359,15.6206655502319
300,51.5439,10.2565269470215
301,51.5519,24.5576114654541
302,51.5577,13.8886795043945
303,51.5682,9.72771167755127
304,51.5730,9.2504186630249
305,51.5776,3.40356755256653
306,51.5847,15.0983085632324
307,51.5891,6.15054845809937
308,51.5930,20.0057983398438
309,51.5985,3.72341537475586
310,51.6015,2.55709958076477
311,51.6130,12.3295669555664
312,51.6242,24.4709377288818
313,51.6303,7.54337739944458
314,51.6364,3.3652491569519
315,51.6450,12.5181255340576
316,51.6483,6.16153621673584
317,51.6525,15.9894590377808
318,51.6576,13.6108474731445
319,51.6613,7.4690089225769
320,51.6656,7.3166937828064
321,51.6683,3.23549365997314
322,51.6747,4.78482913970947
323,51.6797,3.35470962524414
324,51.6841,14.2986812591553
325,51.6895,4.9245023727417
326,51.6974,2.60415101051331
327,51.7010,3.15668511390686
328,51.7045,5.96632146835327
329,51.7119,8.01631832122803
330,51.7156,14.7515277862549
331,51.7189,3.88704991340637
332,51.7263,13.2557144165039
333,51.7305,3.06706118583679
334,51.7338,6.45472431182861
335,51.7373,16.7287330627441
336,51.7413,14.0445232391357
337,51.7464,11.1708564758301
338,51.7524,17.1495265960693
339,51.7576,11.6977491378784
340,51.7629,10.8138189315796
341,51.7711,10.8639039993286
342,51.7813,14.7615642547607
343,51.7882,2.97125887870789
344,51.7931,13.9633588790894
345,51.8015,9.37135219573975
346,51.8053,13.4498291015625
347,51.8090,13.0305480957031
348,51.8141,5.82096815109253
349,51.8164,12.640097618103
350,51.8287,9.73757553100586
351,51.8311,3.0015594959259
352,51.8351,15.6693887710571
353,51.8384,16.2939414978027
354,51.8432,3.2517294883728
355,51.8464,7.44404602050781
356,51.8554,4.07697677612305
357,51.8588,2.66145825386047
358,51.8672,5.9079442024231
359,51.8706,2.7871835231781
360,51.8757,9.38398838043213
361,51.8822,22.8327789306641
362,51.8926,8.63104820251465
363,51.8966,8.57000160217285
364,51.8998,12.9553070068359
365,51.9044,13.0526304244995
366,51.9150,9.14408111572266
367,51.9198,16.0785140991211
368,51.9258,7.77183675765991
369,51.9281,9.1320858001709
370,51.9314,21.5576572418213
371,51.9362,9.26368808746338
372,51.9423,8.49422740936279
373,51.9460,4.31054449081421
374,51.9492,12.8405313491821
375,51.9601,8.25882339477539
376,51.9644,4.89879655838013
377,51.9693,7.73915958404541
378,51.9735,3.91423392295837
379,51.9780,3.5379319190979
380,51.9823,11.9874906539917
381,51.9939,8.64614868164063
382,52.0031,10.6487627029419
383,52.0086,10.9903993606567
384,52.0122,17.9159507751465
385,52.0172,17.7989711761475
386,52.0215,11.6006412506104
387,52.0251,3.41447973251343
388,52.0292,9.23404788970947
389,52.0341,8.30867576599121
390,52.0376,16.0384311676025
391,52.0470,7.64509773254395
392,52.0530,3.68742156028748
393,52.0592,8.16139507293701
394,52.0658,2.76012396812439
395,52.0725,2.73734188079834
396,52.0785,6.62167167663574
397,52.0837,5.47057008743286
398,52.0862,9.84613132476807
399,52.0912,6.74563312530518
400,52.0967,5.56782293319702
401,52.1010,17.6183300018311
402,52.1041,5.52208757400513
403,52.1086,8.47356986999512
404,52.1125,7.44027805328369
405,52.1158,11.2000064849854
406,52.1230,2.66668629646301
407,52.1265,12.026909828186
408,52.1341,16.8082103729248
409,52.1393,2.60948038101196
410,52.1440,17.3604621887207
411,52.1515,16.5519790649414
412,52.1568,16.7145748138428
413,52.1650,8.71935367584229
414,52.1733,5.06036329269409
415,52.1803,4.68394231796265
416,52.1841,2.8552553653717
417,52.1869,6.32587289810181
418,52.1946,11.5824403762817
419,52.1977,4.97551870346069
420,52.2071,4.79731941223145
421,52.2138,16.5919551849365
422,52.2205,4.86937999725342
423,52.2235,4.94943332672119
424,52.2313,3.98347425460815
425,52.2381,10.8865280151367
426,52.2413,3.18404865264893
427,52.2441,3.79113912582397
428,52.2491,11.4644823074341
429,52.2539,3.40350270271301
430,52.2608,6.69031143188477
431,52.2682,12.4731645584106
432,52.2746,9.17603588104248
433,52.2784,5.51369714736938
434,52.2829,6.9103479385376
435,52.2873,6.24092531204224
436,52.2954,20.4208431243896
437,52.3014,13.2560882568359
438,52.3141,21.017126083374
439,52.3177,11.5249433517456
440,52.3240,21.7387828826904
441,52.3270,5.18424797058105
442,52.3356,7.1294116973877
443,52.3426,14.3055067062378
444,52.3471,16.0980911254883
445,52.3532,5.17300748825073
446,52.3608,17.5025825500488
447,52.3653,9.56807899475098
448,52.3697,8.8099889755249
449,52.3734,2.86642146110535
450,52.3772,10.0858030319214
451,52.3856,14.0322732925415
452,52.3941,14.2621173858643
453,52.4034,10.3863182067871
454,52.4103,14.781135559082
455,52.4156,18.0114059448242
456,52.4197,6.33788442611694
457,52.4254,8.14200687408447
458,52.4319,11.4126634597778
459,52.4374,3.33189368247986
460,52.4417,21.0100421905518
461,52.4459,4.79747819900513
462,52.4497,5.37577104568481
463,52.4602,11.0977983474731
464,52.4659,19.924015045166
465,52.4735,2.97158932685852
466,52.4756,6.42718744277954
467,52.4806,3.38875985145569
468,52.4837,21.1812553405762
469,52.4884,9.8150463104248
470,52.4947,9.68980693817139
471,52.4992,3.13663697242737
472,52.5035,8.26603507995605
473,52.5072,10.8739185333252
474,52.5121,3.40656518936157
475,52.5156,12.2747926712036
476,52.5195,6.40780448913574
477,52.5250,10.7525453567505
478,52.5310,16.2933177947998
479,52.5368,3.19987511634827
480,52.5406,5.70242929458618
481,52.5507,3.9422812461853
482,52.5582,6.25766706466675
483,52.5628,17.4329700469971
484,52.5691,3.38700532913208
485,52.5785,3.76905179023743
486,52.5824,5.22026252746582
487,52.5851,4.76131534576416
488,52.5939,5.26746368408203
489,52.5975,6.11393260955811
490,52.6019,12.6436634063721
491,52.6118,14.2976522445679
492,52.6189,11.3518743515015
493,52.6225,9.07033729553223
494,52.6285,7.8736047744751
495,52.6320,5.81066131591797
496,52.6369,11.8378562927246
497,52.6422,21.8499584197998
498,52.6482,6.40567827224731
499,52.6553,14.2257452011108
500,52.6627,8.22550582885742
501,52.6661,2.77356457710266
502,52.6774,3.11585330963135
503,52.6814,6.902259349823
504,52.6854,9.19719886779785
505,52.6880,2.54873061180115
506,52.6915,9.16209411621094
507,52.6950,8.42838287353516
508,52.7000,19.0823078155518
509,52.7053,8.82017230987549
510,52.7101,9.98105716705322
511,52.7155,13.2312088012695
512,52.7206,11.135422706604
513,52.7293,9.90684604644775
514,52.7391,13.2728967666626
515,52.7425,6.36307859420776
516,52.7448,2.7180290222168
517,52.7502,4.85837078094482
518,52.7568,10.7070655822754
519,52.7662,9.69312000274658
520,52.7751,2.87394523620605
521,52.7784,17.6648025512695
522,52.7850,18.4547157287598
523,52.7917,12.9678287506104
524,52.7990,18.5356044769287
525,52.8031,3.27863550186157
526,52.8094,12.610164642334
527,52.8155,16.1446895599365
528,52.8195,15.2878293991089
529,52.8231,2.95582580566406
530,52.8281,11.7821865081787
531,52.8403,3.49930047988892
532,52.8430,9.0687370300293
533,52.8512,3.4146511554718
534,52.8576,14.9389371871948
535,52.8607,2.57530474662781
536,52.8656,2.69328141212463
537,52.8692,13.6984443664551
538,52.8722,4.12097597122192
539,52.8751,6.44764280319214
540,52.8777,8.54678535461426
541,52.8841,16.3347682952881
542,52.8927,6.0395393371582
543,52.8998,15.2869892120361
544,52.9033,2.60258436203003
545,52.9113,16.1596813201904
546,52.9146,22.3944854736328
547,52.9179,8.99661445617676
548,52.9228,5.36915063858032
549,52.9283,6.67526149749756
550,52.9320,7.16248273849487
551,52.9369,23.6489334106445
552,52.9409,10.3419160842896
553,52.9445,15.0426445007324
554,52.9506,5.27176570892334
555,52.9611,6.56843662261963
556,52.9695,17.8848495483398
557,52.9741,15.6989097595215
558,52.9782,15.7871837615967
559,52.9832,9.61106395721436
560,52.9875,11.5700836181641
561,52.9914,10.8230953216553
562,52.9950,4.29877614974976
563,53.0045,20.2810745239258
564,53.0074,3.63037967681885
565,53.0110,11.0663185119629
566,53.0168,7.02371740341187
567,53.0209,11.1909866333008
568,53.0278,5.00033283233643
569,53.0330,7.4392352104187
570,53.0431,18.7869663238525
571,53.0486,10.7158832550049
572,53.0535,23.4306488037109
573,53.0588,9.88011455535889
574,53.0664,14.169903755188
575,53.0721,13.3827447891235
576,53.0765,7.0767035484314
577,53.0810,8.06156635284424
578,53.0862,3.08900904655457
579,53.0899,5.97950172424316
580,53.0947,9.00145053863525
581,53.1046,27.3993034362793
582,53.1100,15.0894823074341
583,53.1129,4.96677207946777
584,53.1265,12.0420598983765
585,53.1341,16.9395885467529
586,53.1447,5.01063442230225
587,53.1485,3.49417781829834
588,53.1568,9.1247615814209
589,53.1628,3.55701661109924
590,53.1690,14.5188388824463
591,53.1792,18.94140625
592,53.1822,3.15691733360291
593,53.1867,11.3735313415527
594,53.1913,5.5254864692688
595,53.1957,3.68453788757324
596,53.1998,8.16649150848389
597,53.2030,11.962833404541
598,53.2093,14.4277811050415
599,53.2151,3.41370487213135
600,53.2323,6.70087575912476
601,53.2369,11.1902389526367
602,53.2428,13.1200256347656
603,53.2476,13.0080785751343
604,53.2511,4.82252931594849
605,53.2554,5.46685028076172
606,53.2661,2.68541955947876
607,53.2722,7.52913236618042
608,53.2754,6.26435852050781
609,53.2779,8.96590042114258
610,53.2842,14.7629547119141
611,53.2889,8.27479553222656
612,53.2928,5.26989889144897
613,53.3021,8.61722946166992
614,53.3051,2.95228838920593
615,53.3092,3.51898741722107
616,53.3137,3.20591449737549
617,53.3185,3.52848100662231
618,53.3217,3.44942736625671
619,53.3351,3.09142446517944
620,53.3386,10.3786554336548
621,53.3448,14.4113340377808
622,53.3493,5.61203527450562
623,53.3548,5.66068124771118
624,53.3573,2.66536235809326
625,53.3601,3.44775700569153
626,53.3666,2.90780687332153
627,53.3765,9.01217079162598
628,53.3814,17.3409843444824
629,53.3863,4.95245456695557
630,53.3909,9.91510677337646
631,53.3953,9.15940189361572
632,53.4006,13.6065816879272
633,53.4121,8.89254474639893
634,53.4164,8.47586536407471
635,53.4234,11.5333728790283
636,53.4286,2.92726898193359
637,53.4328,3.53571629524231
638,53.4361,14.3767213821411
639,53.4418,8.43644046783447
640,53.4452,11.7465553283691
641,53.4483,8.07061195373535
642,53.4531,3.09931015968323
643,53.4567,6.11774826049805
644,53.4604,11.4300928115845
645,53.4666,10.2164878845215
646,53.4689,11.0381088256836
647,53.4750,5.87513732910156
648,53.4837,12.0742292404175
649,53.4866,2.97727274894714
650,53.4934,18.0180358886719
651,53.4982,12.365553855896
652,53.5019,16.1212139129639
653,53.5065,8.3806095123291
654,53.5125,14.5117340087891
655,53.5163,7.75994777679443
656,53.5211,10.8432111740112
657,53.5258,11.2101831436157
658,53.5332,22.9092998504639
659,53.5413,9.14671516418457
660,53.5481,3.64733576774597
661,53.5566,11.0259666442871
662,53.5592,6.53469514846802
663,53.5625,18.4097423553467
664,53.5673,12.5817604064941
665,53.5704,12.7183561325073
666,53.5735,6.9589409828186
667,53.5786,5.55119752883911
668,53.5854,7.25751829147339
