#"-ESI Scan (rt: 0.051-1.013 min, 80 scans) Frag=175.0V wash4.d "
#Point,X(Thompsons),Y(Counts)
0,50.0012,7.41440057754517
1,50.0088,29.4220886230469
2,50.0163,9.54344940185547
3,50.0202,4.17954540252686
4,50.0260,8.80258178710938
5,50.0325,23.9719505310059
6,50.0388,8.94829750061035
7,50.0451,4.69004058837891
8,50.0537,6.08763742446899
9,50.0577,5.40950107574463
10,50.0611,9.31183338165283
11,50.0650,16.3743648529053
12,50.0724,14.4195585250854
13,50.0792,18.7880401611328
14,50.0853,25.5386047363281
15,50.0887,4.85208129882813
16,50.0913,26.4457702636719
17,50.0956,23.491813659668
18,50.0991,5.86097097396851
19,50.1028,14.0824308395386
20,50.1056,5.54489803314209
21,50.1151,4.22529363632202
22,50.1199,4.23452377319336
23,50.1226,9.77262592315674
24,50.1290,7.56806421279907
25,50.1325,10.0075168609619
26,50.1356,4.56394243240356
27,50.1395,23.4424476623535
28,50.1514,17.5535430908203
29,50.1540,13.3277225494385
30,50.1573,21.2930068969727
31,50.1623,15.6501140594482
32,50.1667,20.8693943023682
33,50.1721,11.5369672775269
34,50.1788,10.9820756912231
35,50.1831,5.02347421646118
36,50.1861,5.69644165039063
37,50.1894,26.1881446838379
38,50.1943,13.9066190719604
39,50.1984,16.8441009521484
40,50.2026,11.6825408935547
41,50.2095,10.6897964477539
42,50.2129,5.08559703826904
43,50.2170,4.90835618972778
44,50.2206,5.29100370407104
45,50.2249,15.2893857955933
46,50.2296,25.8145561218262
47,50.2336,9.75425910949707
48,50.2391,36.2893562316895
49,50.2443,16.3037147521973
50,50.2480,5.63301563262939
51,50.2530,22.6810932159424
52,50.2564,10.6165008544922
53,50.2610,4.51953125
54,50.2659,24.7321014404297
55,50.2727,21.1727352142334
56,50.2775,4.70217418670654
57,50.2821,11.327672958374
58,50.2870,10.3539304733276
59,50.2952,18.2484378814697
60,50.2993,23.7553691864014
61,50.3054,19.4356346130371
62,50.3106,13.5485057830811
63,50.3159,15.9226627349854
64,50.3212,11.0738525390625
65,50.3261,4.55350160598755
66,50.3311,9.82314777374268
67,50.3410,8.69542598724365
68,50.3454,19.6763038635254
69,50.3495,5.12114810943604
70,50.3527,15.2652187347412
71,50.3567,5.49352693557739
72,50.3642,6.30325412750244
73,50.3759,10.9801654815674
74,50.3808,13.8771486282349
75,50.3852,9.69671249389648
76,50.3891,19.2009105682373
77,50.3924,6.36978149414063
78,50.3986,9.10481834411621
79,50.4049,20.8752555847168
80,50.4078,5.29350137710571
81,50.4122,5.00415992736816
82,50.4179,26.5340270996094
83,50.4251,20.9393920898438
84,50.4307,6.77658700942993
85,50.4333,14.4848613739014
86,50.4376,21.4927196502686
87,50.4402,12.6562786102295
88,50.4451,5.09086036682129
89,50.4477,4.82738971710205
90,50.4556,15.0215816497803
91,50.4603,20.9278316497803
92,50.4675,9.6563663482666
93,50.4730,35.0240745544434
94,50.4780,4.50974035263062
95,50.4830,11.3740653991699
96,50.4870,9.61527824401855
97,50.4921,20.796407699585
98,50.4969,2.64896249771118
99,50.5008,10.5473909378052
100,50.5038,9.74129962921143
101,50.5088,12.1869344711304
102,50.5169,14.70348072052
103,50.5208,23.8277931213379
104,50.5331,10.0540714263916
105,50.5396,5.20437383651733
106,50.5423,16.9927024841309
107,50.5514,26.6257381439209
108,50.5578,20.0804290771484
109,50.5624,13.7909774780273
110,50.5672,20.5346412658691
111,50.5729,5.37295961380005
112,50.5771,15.8721408843994
113,50.5828,19.518102645874
114,50.5875,27.490514755249
115,50.5918,4.49204015731812
116,50.5967,20.1711654663086
117,50.6010,11.3273286819458
118,50.6085,26.5320014953613
119,50.6143,15.3278141021729
120,50.6183,11.8919343948364
121,50.6299,5.16482830047607
122,50.6348,15.6404294967651
123,50.6396,16.3015174865723
124,50.6486,9.82872295379639
125,50.6584,9.39864635467529
126,50.6652,33.5349807739258
127,50.6704,10.3390016555786
128,50.6811,32.571216583252
129,50.6858,9.19567108154297
130,50.6895,13.2966871261597
131,50.6939,9.48115539550781
132,50.6989,14.7879467010498
133,50.7027,6.14898586273193
134,50.7057,4.70169162750244
135,50.7096,19.4887428283691
136,50.7135,10.7099151611328
137,50.7177,17.7005195617676
138,50.7247,10.3077373504639
139,50.7322,19.6366958618164
140,50.7378,5.15928936004639
141,50.7410,38.4336128234863
142,50.7452,10.3552227020264
143,50.7494,10.496675491333
144,50.7519,15.6438751220703
145,50.7572,15.6497650146484
146,50.7615,19.0717849731445
147,50.7650,33.2047157287598
148,50.7688,25.7589931488037
149,50.7722,31.3374519348145
150,50.7802,16.8290023803711
151,50.7836,30.263708114624
152,50.7919,9.19400596618652
153,50.7955,4.5831732749939
154,50.8008,7.64492797851563
155,50.8038,4.26409482955933
156,50.8069,6.24423789978027
157,50.8092,16.1687068939209
158,50.8134,7.03208684921265
159,50.8170,19.0740509033203
160,50.8247,45.1870231628418
161,50.8309,20.778751373291
162,50.8360,15.3995237350464
163,50.8401,11.5639543533325
164,50.8465,10.856294631958
165,50.8525,23.5288772583008
166,50.8598,9.31099510192871
167,50.8655,16.0130710601807
168,50.8757,6.48775625228882
169,50.8812,5.66635465621948
170,50.8835,11.4519624710083
171,50.8869,10.1564407348633
172,50.8927,21.2024955749512
173,50.8993,15.0859270095825
174,50.9030,27.2409248352051
175,50.9086,10.2580461502075
176,50.9164,10.2252779006958
177,50.9196,4.2421875
178,50.9238,5.04107141494751
179,50.9282,9.41547679901123
180,50.9376,4.50088500976563
181,50.9424,15.9791564941406
182,50.9494,9.53125190734863
183,50.9522,13.0568866729736
184,50.9566,16.5755348205566
185,50.9621,25.4357452392578
186,50.9709,4.94999980926514
187,50.9779,12.9299297332764
188,50.9818,10.3567781448364
189,50.9874,16.6026573181152
190,50.9928,29.9385318756104
191,50.9954,4.91356372833252
192,51.0059,16.834903717041
193,51.0097,3.8516411781311
194,51.0188,24.6879119873047
195,51.0224,53.9202651977539
196,51.0262,14.0383710861206
197,51.0418,14.4643611907959
198,51.0470,17.5366554260254
199,51.0500,3.1462824344635
200,51.0533,4.90742969512939
201,51.0571,9.81441688537598
202,51.0621,21.7850761413574
203,51.0698,19.9300422668457
204,51.0769,16.3091621398926
205,51.0810,4.61120319366455
206,51.0848,28.8971042633057
207,51.0904,19.8195152282715
208,51.0947,27.5091133117676
209,51.1009,19.988956451416
210,51.1044,4.66111612319946
211,51.1094,22.9900226593018
212,51.1128,5.37128114700317
213,51.1180,37.3246726989746
214,51.1229,26.1532955169678
215,51.1285,22.7795963287354
216,51.1311,11.7223882675171
217,51.1337,9.90192604064941
218,51.1414,16.5271949768066
219,51.1492,16.239236831665
220,51.1546,23.3629951477051
221,51.1583,10.5550241470337
222,51.1607,11.6764659881592
223,51.1643,40.310863494873
224,51.1691,4.90925168991089
225,51.1762,15.2055921554565
226,51.1806,6.90519428253174
227,51.1848,4.71952247619629
228,51.1898,8.76038551330566
229,51.1940,15.3508453369141
230,51.1977,10.9365005493164
231,51.2103,16.3941993713379
232,51.2134,16.3157653808594
233,51.2188,18.6874446868896
234,51.2231,21.3181972503662
235,51.2265,10.0219020843506
236,51.2300,26.3950748443604
237,51.2340,5.14632320404053
238,51.2404,10.8079452514648
239,51.2462,10.4059371948242
240,51.2513,5.48402404785156
241,51.2552,14.5065670013428
242,51.2597,41.597225189209
243,51.2690,14.0673961639404
244,51.2745,23.2250823974609
245,51.2796,20.4049644470215
246,51.2851,5.48111248016357
247,51.2905,5.75095176696777
248,51.2978,28.9717750549316
249,51.3041,5.04273271560669
250,51.3087,19.9279136657715
251,51.3199,15.1732120513916
252,51.3257,5.07991743087769
253,51.3340,3.35526323318481
254,51.3378,17.5670223236084
255,51.3428,7.28403186798096
256,51.3456,6.08728218078613
257,51.3483,9.83506202697754
258,51.3516,3.53449177742004
259,51.3578,23.6978702545166
260,51.3637,26.0371246337891
261,51.3727,16.8367862701416
262,51.3783,15.5279588699341
263,51.3830,16.3970203399658
264,51.3879,25.917444229126
265,51.3936,26.3803310394287
266,51.3988,13.7522430419922
267,51.4033,14.5153837203979
268,51.4156,5.26838207244873
269,51.4188,18.5407829284668
270,51.4248,20.73215675354
271,51.4295,15.0051698684692
272,51.4391,6.87778234481812
273,51.4426,4.11655187606812
274,51.4458,9.69214534759521
275,51.4519,6.60884380340576
276,51.4561,4.33494901657104
277,51.4629,26.0792789459229
278,51.4671,21.2389030456543
279,51.4697,10.4129056930542
280,51.4734,9.52679061889648
281,51.4766,5.23247098922729
282,51.4790,21.2156734466553
283,51.4861,17.8725700378418
284,51.4906,17.2854423522949
285,51.4963,15.4119873046875
286,51.5016,10.5346946716309
287,51.5066,13.6996793746948
288,51.5149,17.2126522064209
289,51.5199,16.6811180114746
290,51.5244,10.5949153900146
291,51.5290,22.233793258667
292,51.5334,8.94369029998779
293,51.5371,14.0083513259888
294,51.5397,3.60951232910156
295,51.5435,27.6184730529785
296,51.5517,15.0571546554565
297,51.5572,5.2432165145874
298,51.5616,10.572564125061
299,51.5700,29.7401847839355
300,51.5754,9.44369983673096
301,51.5784,10.0624141693115
302,51.5856,14.711932182312
303,51.5921,9.72396183013916
304,51.5987,14.7546634674072
305,51.6029,23.9243946075439
306,51.6115,25.2622032165527
307,51.6154,15.5431518554688
308,51.6220,20.5899066925049
309,51.6314,8.26740837097168
310,51.6393,4.99551200866699
311,51.6432,9.98868751525879
312,51.6500,16.0744609832764
313,51.6532,16.2043075561523
314,51.6558,3.67870712280273
315,51.6600,4.41380023956299
316,51.6675,6.05857563018799
317,51.6703,15.315221786499
318,51.6746,14.7991209030151
319,51.6785,23.3055286407471
320,51.6825,5.87980127334595
321,51.6876,9.6177978515625
322,51.6948,16.515604019165
323,51.6977,5.15851736068726
324,51.7108,20.1562404632568
325,51.7170,9.5559663772583
326,51.7202,21.8967189788818
327,51.7240,9.43752098083496
328,51.7276,11.2692108154297
329,51.7332,4.88860559463501
330,51.7396,20.5720710754395
331,51.7439,14.739049911499
332,51.7493,15.0786619186401
333,51.7595,19.0686531066895
334,51.7621,14.7042446136475
335,51.7670,16.2385864257813
336,51.7708,20.3745937347412
337,51.7756,14.5826473236084
338,51.7793,18.5345840454102
339,51.7830,5.92500019073486
340,51.7887,14.1519441604614
341,51.7938,9.57429504394531
342,51.7983,14.8078184127808
343,51.8032,4.80068492889404
344,51.8077,14.8412065505981
345,51.8156,16.8262214660645
346,51.8259,19.5487461090088
347,51.8312,25.7902565002441
348,51.8349,9.3217601776123
349,51.8392,11.3406114578247
350,51.8424,14.0361709594727
351,51.8509,24.6574172973633
352,51.8567,14.7601318359375
353,51.8599,5.52525091171265
354,51.8641,15.4187183380127
355,51.8697,7.89811992645264
356,51.8781,5.17956066131592
357,51.8821,27.2157802581787
358,51.8878,9.22021293640137
359,51.8912,15.7156419754028
360,51.8958,15.9187107086182
361,51.9006,21.1454696655273
362,51.9051,9.99657154083252
363,51.9082,6.12522745132446
364,51.9119,24.860330581665
365,51.9189,5.52991056442261
366,51.9233,26.5441799163818
367,51.9294,20.1711769104004
368,51.9343,20.7578468322754
369,51.9392,14.7835235595703
370,51.9442,9.58823204040527
371,51.9468,10.4358596801758
372,51.9506,20.3787250518799
373,51.9549,9.04408168792725
374,51.9617,5.17050170898438
375,51.9646,9.42723846435547
376,51.9721,16.7144889831543
377,51.9788,19.1596450805664
378,51.9874,14.5731935501099
379,51.9906,11.0862407684326
380,51.9931,12.2000026702881
381,51.9973,5.0731725692749
382,52.0009,21.7226467132568
383,52.0077,21.0684604644775
384,52.0124,11.2754669189453
385,52.0152,4.765540599823
386,52.0198,23.8793792724609
387,52.0244,19.3402252197266
388,52.0275,5.51666688919067
389,52.0333,36.9085311889648
390,52.0437,26.5008239746094
391,52.0491,4.87522840499878
392,52.0542,25.617733001709
393,52.0597,16.0142650604248
394,52.0634,6.52241134643555
395,52.0678,2.87524271011353
396,52.0731,17.9713554382324
397,52.0811,11.0847415924072
398,52.0860,15.6666164398193
399,52.0957,12.8646793365479
400,52.1002,4.54926061630249
401,52.1102,23.9427013397217
402,52.1135,8.86608600616455
403,52.1176,11.1785173416138
404,52.1246,9.20315265655518
405,52.1284,12.2009525299072
406,52.1333,13.4123258590698
407,52.1385,20.7026176452637
408,52.1463,25.8931694030762
409,52.1525,15.6354904174805
410,52.1575,5.17692136764526
411,52.1608,9.34488010406494
412,52.1711,5.38473558425903
413,52.1746,14.7501039505005
414,52.1801,10.1558885574341
415,52.1869,11.9879465103149
416,52.1982,18.5876960754395
417,52.2030,20.7178993225098
418,52.2074,9.42961883544922
419,52.2124,8.91529655456543
420,52.2199,27.7006492614746
421,52.2255,4.6762170791626
422,52.2289,14.17027759552
423,52.2346,10.2784471511841
424,52.2390,19.9777679443359
425,52.2431,5.09668159484863
426,52.2469,22.4784889221191
427,52.2505,6.68942880630493
428,52.2541,16.0279273986816
429,52.2614,27.1643161773682
430,52.2651,9.489426612854
431,52.2687,9.42654514312744
432,52.2743,21.6285152435303
433,52.2815,15.2966890335083
434,52.2853,10.5023555755615
435,52.2895,5.28476572036743
436,52.2940,4.71583271026611
437,52.2991,20.4897308349609
438,52.3086,10.5966129302979
439,52.3157,11.14515209198
440,52.3199,4.97042226791382
441,52.3282,10.4969053268433
442,52.3311,21.6152038574219
443,52.3370,5.41420459747314
444,52.3401,14.2630491256714
445,52.3504,11.2689800262451
446,52.3553,15.91259765625
447,52.3598,11.6352281570435
448,52.3664,3.14550065994263
449,52.3708,6.11278438568115
450,52.3746,10.1396188735962
451,52.3794,16.3755741119385
452,52.3832,5.10716390609741
453,52.3866,10.7930421829224
454,52.3898,4.45398283004761
455,52.3949,4.36321401596069
456,52.3981,11.2400684356689
457,52.4031,21.8816947937012
458,52.4125,11.097188949585
459,52.4166,14.9924869537354
460,52.4196,16.3193130493164
461,52.4263,19.2908744812012
462,52.4337,10.3620166778564
463,52.4394,28.2512969970703
464,52.4440,8.13356971740723
465,52.4478,5.76131772994995
466,52.4532,15.3508272171021
467,52.4566,10.6972303390503
468,52.4687,19.7266139984131
469,52.4741,11.2033214569092
470,52.4786,22.0181503295898
471,52.4823,21.6562919616699
472,52.4867,25.0287132263184
473,52.4914,4.83190822601318
474,52.4951,13.9600877761841
475,52.4972,15.238489151001
476,52.5009,4.81219530105591
477,52.5063,11.9852113723755
478,52.5082,8.86855125427246
479,52.5124,11.8757429122925
480,52.5176,16.4138050079346
481,52.5281,9.86646842956543
482,52.5336,6.3424072265625
483,52.5390,15.8354005813599
484,52.5450,4.87558841705322
485,52.5501,4.336594581604
486,52.5530,4.9692063331604
487,52.5570,29.9243316650391
488,52.5618,18.6850471496582
489,52.5649,4.75180053710938
490,52.5728,21.6722526550293
491,52.5776,4.31500720977783
492,52.5844,12.2913990020752
493,52.5884,15.5603656768799
494,52.5916,17.2751560211182
495,52.5948,10.0824565887451
496,52.6007,4.5921106338501
497,52.6042,11.2013416290283
498,52.6079,23.2249412536621
499,52.6140,22.1812648773193
500,52.6190,23.5274810791016
501,52.6233,5.1166353225708
502,52.6286,21.2866554260254
503,52.6330,15.8358335494995
504,52.6367,11.0431022644043
505,52.6427,9.62898063659668
506,52.6518,4.81126070022583
507,52.6608,14.6588497161865
508,52.6651,9.61905670166016
509,52.6685,10.6468181610107
510,52.6732,5.36958932876587
511,52.6784,9.24769020080566
512,52.6815,26.2262477874756
513,52.6885,12.5081081390381
514,52.6946,21.9943313598633
515,52.6991,10.6181402206421
516,52.7020,14.369987487793
517,52.7128,6.12203311920166
518,52.7191,10.4672946929932
519,52.7226,5.11533546447754
520,52.7311,15.5088520050049
521,52.7354,32.7477951049805
522,52.7392,26.7359561920166
523,52.7464,9.37074565887451
524,52.7537,20.3767242431641
525,52.7613,15.2180728912354
526,52.7663,5.8008337020874
527,52.7725,18.2360420227051
528,52.7763,14.3230800628662
529,52.7843,16.366024017334
530,52.7874,10.0205783843994
531,52.7970,4.82924127578735
532,52.8024,10.9705801010132
533,52.8064,7.67045879364014
534,52.8135,11.4828367233276
535,52.8175,11.7052536010742
536,52.8216,23.5192699432373
537,52.8263,16.0893821716309
538,52.8307,8.7121639251709
539,52.8402,16.698657989502
540,52.8486,9.60442352294922
541,52.8547,17.10910987854
542,52.8589,14.1194887161255
543,52.8652,14.9393444061279
544,52.8696,42.2555694580078
545,52.8767,9.913893699646
546,52.8810,5.72530269622803
547,52.8854,5.90993976593018
548,52.8891,26.1336517333984
549,52.8946,19.8658027648926
550,52.9012,12.8866834640503
551,52.9061,10.4621448516846
552,52.9105,5.13342952728271
553,52.9146,16.9389533996582
554,52.9191,5.68512630462646
555,52.9229,9.99091339111328
556,52.9261,19.1502990722656
557,52.9294,20.1233425140381
558,52.9388,15.1701984405518
559,52.9421,13.2419338226318
560,52.9569,21.0403060913086
561,52.9613,15.910924911499
562,52.9649,9.09999465942383
563,52.9699,38.0500717163086
564,52.9785,25.8537406921387
565,52.9878,10.0497856140137
566,52.9907,5.74160146713257
567,52.9937,11.1418714523315
568,52.9968,4.30185270309448
569,53.0000,16.406909942627
570,53.0037,18.7299251556396
571,53.0077,9.31964588165283
572,53.0121,6.31154012680054
573,53.0153,11.1781387329102
574,53.0220,20.661018371582
575,53.0259,20.5391807556152
576,53.0295,10.8671932220459
577,53.0334,11.3525705337524
578,53.0390,27.3788967132568
579,53.0445,28.6909980773926
580,53.0479,5.06732082366943
581,53.0521,17.5854549407959
582,53.0557,5.11106014251709
583,53.0602,9.67517566680908
584,53.0634,15.1434631347656
585,53.0695,10.8108682632446
586,53.0735,22.0369491577148
587,53.0785,20.6702060699463
588,53.0834,4.79050254821777
589,53.0900,9.15345764160156
590,53.0952,6.31632709503174
591,53.0992,21.3786468505859
592,53.1037,5.05000877380371
593,53.1102,44.4715385437012
594,53.1212,11.153416633606
595,53.1294,22.9036293029785
596,53.1330,16.5154037475586
597,53.1374,14.0132246017456
598,53.1419,15.0244474411011
599,53.1449,4.84723854064941
600,53.1503,14.0158748626709
601,53.1548,9.92985343933105
602,53.1578,4.98802661895752
603,53.1606,10.8129043579102
604,53.1692,4.71053791046143
605,53.1765,14.796854019165
606,53.1795,10.8251333236694
607,53.1820,10.8568086624146
608,53.1853,9.4603328704834
609,53.1887,14.6288585662842
610,53.1941,16.4255695343018
611,53.2057,10.3660373687744
612,53.2101,12.856969833374
613,53.2171,15.2234220504761
614,53.2206,8.39323902130127
615,53.2235,5.99943828582764
616,53.2286,21.2992286682129
617,53.2315,6.96760845184326
618,53.2352,4.03757429122925
619,53.2384,9.36539840698242
620,53.2425,4.73791360855103
621,53.2463,15.0592622756958
622,53.2495,9.47994518280029
623,53.2600,17.0643157958984
624,53.2645,8.11489772796631
625,53.2678,15.0660305023193
626,53.2737,16.1433982849121
627,53.2781,9.46350288391113
628,53.2856,9.54326343536377
629,53.2885,6.50232839584351
630,53.2943,13.9103651046753
631,53.3049,10.1623582839966
632,53.3103,24.2096939086914
633,53.3154,13.9606094360352
634,53.3229,4.80325984954834
635,53.3282,10.1047086715698
636,53.3321,5.08487796783447
637,53.3350,22.3563747406006
638,53.3389,33.6170196533203
639,53.3432,4.53979587554932
640,53.3465,15.1315793991089
641,53.3512,24.7359199523926
642,53.3551,44.1144561767578
643,53.3608,26.8471069335938
644,53.3689,15.8458833694458
645,53.3762,25.8293952941895
646,53.3816,20.1032524108887
647,53.3871,4.78474187850952
648,53.3907,4.44645595550537
649,53.3943,5.35615682601929
650,53.3999,16.1579036712646
651,53.4034,9.76472663879395
652,53.4062,19.145751953125
653,53.4101,11.1554832458496
654,53.4208,11.0618906021118
655,53.4302,11.4687566757202
656,53.4343,9.32743549346924
657,53.4376,11.6721935272217
658,53.4399,11.4923505783081
659,53.4487,26.0038757324219
660,53.4553,15.0653657913208
661,53.4592,20.8575305938721
662,53.4656,4.28708791732788
663,53.4689,4.59852123260498
664,53.4720,11.5260238647461
665,53.4759,11.0358486175537
666,53.4818,4.63763904571533
667,53.4873,21.0336856842041
668,53.4933,31.4722175598145
