#"-ESI Scan (rt: 0.056-1.018 min, 80 scans) Frag=175.0V wash15.d "
#Point,X(Thompsons),Y(Counts)
0,50.0045,18.1215476989746
1,50.0086,4.83985996246338
2,50.0123,21.223804473877
3,50.0154,13.9963989257813
4,50.0197,10.7573213577271
5,50.0240,28.3147163391113
6,50.0272,11.203971862793
7,50.0310,14.3812532424927
8,50.0353,17.736255645752
9,50.0402,9.35975360870361
10,50.0460,17.9306907653809
11,50.0529,34.2099647521973
12,50.0567,14.2712783813477
13,50.0650,20.5921592712402
14,50.0699,9.90667915344238
15,50.0733,5.16250896453857
16,50.0763,22.0471858978271
17,50.0821,18.458890914917
18,50.0896,5.1466269493103
19,50.0934,34.5162467956543
20,50.1008,24.9801254272461
21,50.1049,4.337158203125
22,50.1082,16.2551116943359
23,50.1125,10.8309659957886
24,50.1170,9.64159965515137
25,50.1207,30.8202018737793
26,50.1261,16.5928020477295
27,50.1306,26.3457908630371
28,50.1354,4.86429309844971
29,50.1381,4.6627893447876
30,50.1417,32.6517181396484
31,50.1452,14.9843063354492
32,50.1522,21.4613723754883
33,50.1576,7.58916759490967
34,50.1604,15.8460283279419
35,50.1671,8.34051322937012
36,50.1703,5.25248050689697
37,50.1747,4.22052574157715
38,50.1814,25.434383392334
39,50.1858,20.4236545562744
40,50.1922,9.74442100524902
41,50.1967,13.8622570037842
42,50.2021,28.4729270935059
43,50.2065,28.3106117248535
44,50.2118,10.0284614562988
45,50.2150,2.91322326660156
46,50.2186,29.9219818115234
47,50.2251,9.70240020751953
48,50.2290,39.8810958862305
49,50.2345,32.5200157165527
50,50.2402,20.2536735534668
51,50.2476,10.4319496154785
52,50.2524,14.9588804244995
53,50.2573,21.5675029754639
54,50.2600,11.5321865081787
55,50.2646,4.03206348419189
56,50.2683,12.697003364563
57,50.2709,16.6614284515381
58,50.2741,14.6166734695435
59,50.2773,36.2867202758789
60,50.2839,6.36288928985596
61,50.2887,5.57695531845093
62,50.2929,14.5032215118408
63,50.2968,10.8673963546753
64,50.3035,12.7537689208984
65,50.3084,29.2809448242188
66,50.3139,4.66444158554077
67,50.3168,25.5579566955566
68,50.3225,28.0882053375244
69,50.3259,4.94690275192261
70,50.3299,4.48150062561035
71,50.3369,16.1099491119385
72,50.3433,15.7688474655151
73,50.3564,20.0310039520264
74,50.3616,9.76465129852295
75,50.3657,16.2130012512207
76,50.3697,4.14235782623291
77,50.3733,22.1847877502441
78,50.3777,16.2077026367188
79,50.3838,17.2854347229004
80,50.3878,7.13998699188232
81,50.3928,5.05502986907959
82,50.3959,20.0092353820801
83,50.3996,14.864649772644
84,50.4032,9.38858127593994
85,50.4139,13.7791748046875
86,50.4172,4.66437196731567
87,50.4219,20.4656887054443
88,50.4258,17.6123085021973
89,50.4301,18.385799407959
90,50.4343,9.50945091247559
91,50.4377,13.9662475585938
92,50.4449,15.0720882415771
93,50.4561,9.95800590515137
94,50.4607,15.9147920608521
95,50.4637,10.8504943847656
96,50.4679,24.6593837738037
97,50.4722,15.571026802063
98,50.4757,14.9989347457886
99,50.4807,20.6380500793457
100,50.4866,14.9978075027466
101,50.4900,15.10435962677
102,50.4924,4.66358184814453
103,50.4947,9.33859443664551
104,50.4975,8.60491180419922
105,50.5016,29.4460391998291
106,50.5062,18.5993156433105
107,50.5181,27.6198844909668
108,50.5218,10.7025852203369
109,50.5246,15.1530027389526
110,50.5300,9.69227409362793
111,50.5348,35.1147193908691
112,50.5391,24.267520904541
113,50.5425,26.2217922210693
114,50.5475,20.2245597839355
115,50.5511,21.4994163513184
116,50.5574,24.0210437774658
117,50.5623,15.8438920974731
118,50.5696,9.7625732421875
119,50.5734,14.8358793258667
120,50.5796,18.7489528656006
121,50.5837,17.1309814453125
122,50.5906,23.7013130187988
123,50.5938,10.8914699554443
124,50.5998,5.50456571578979
125,50.6045,24.6598663330078
126,50.6094,15.8109798431396
127,50.6133,18.0594043731689
128,50.6220,28.0275230407715
129,50.6295,16.7304058074951
130,50.6333,6.5728554725647
131,50.6387,4.33441829681396
132,50.6428,6.03119945526123
133,50.6456,11.6215867996216
134,50.6493,10.3994092941284
135,50.6548,24.3799018859863
136,50.6610,22.3288650512695
137,50.6658,18.6607074737549
138,50.6699,15.4921054840088
139,50.6761,9.72874927520752
140,50.6800,9.22497844696045
141,50.6862,9.0299015045166
142,50.6902,25.5999794006348
143,50.6936,19.5934638977051
144,50.6971,15.2349948883057
145,50.7011,5.44134616851807
146,50.7039,4.36055374145508
147,50.7095,14.6765766143799
148,50.7140,21.3516139984131
149,50.7182,40.0041732788086
150,50.7227,15.336802482605
151,50.7309,25.2451152801514
152,50.7352,4.8770112991333
153,50.7379,4.46654081344604
154,50.7414,4.89520025253296
155,50.7454,14.1698503494263
156,50.7482,5.35811233520508
157,50.7518,28.4618129730225
158,50.7577,14.8065242767334
159,50.7610,9.95105266571045
160,50.7642,8.6265811920166
161,50.7684,9.05135917663574
162,50.7727,26.174243927002
163,50.7789,21.8378944396973
164,50.7873,5.78788089752197
165,50.7939,6.46200084686279
166,50.7993,9.60576057434082
167,50.8015,4.42661190032959
168,50.8068,30.7056465148926
169,50.8131,34.6224555969238
170,50.8169,10.7727384567261
171,50.8205,9.40324211120605
172,50.8264,28.3402042388916
173,50.8292,4.95239353179932
174,50.8346,9.99410057067871
175,50.8375,8.77304649353027
176,50.8415,6.36023998260498
177,50.8444,25.2780513763428
178,50.8495,14.5817642211914
179,50.8534,4.4910831451416
180,50.8563,4.78759622573853
181,50.8589,13.7897615432739
182,50.8672,15.5021867752075
183,50.8712,14.0951995849609
184,50.8765,21.2707099914551
185,50.8804,34.9734878540039
186,50.8847,28.0693759918213
187,50.8884,6.58862590789795
188,50.8924,4.88901233673096
189,50.8964,14.5591154098511
190,50.9005,35.5473709106445
191,50.9038,12.5026082992554
192,50.9074,7.13202667236328
193,50.9128,18.4265747070313
194,50.9155,15.2057371139526
195,50.9186,18.0452766418457
196,50.9229,10.3540716171265
197,50.9284,10.0956478118896
198,50.9327,29.5839424133301
199,50.9364,4.63871669769287
200,50.9393,10.0418071746826
201,50.9446,40.3714904785156
202,50.9516,14.2984647750854
203,50.9547,40.2826042175293
204,50.9609,31.622537612915
205,50.9649,19.9219818115234
206,50.9694,4.54311847686768
207,50.9728,14.0862560272217
208,50.9755,20.8377742767334
209,50.9785,9.66340351104736
210,50.9817,8.04201507568359
211,50.9910,13.1878128051758
212,50.9962,4.74275302886963
213,51.0010,27.8670749664307
214,51.0059,20.570743560791
215,51.0094,4.82463026046753
216,51.0121,9.77530479431152
217,51.0137,10.91721534729
218,51.0172,12.7939500808716
219,51.0239,38.2866439819336
220,51.0281,29.4297752380371
221,51.0346,31.3438205718994
222,51.0389,24.6566505432129
223,51.0434,27.946590423584
224,51.0480,46.7106285095215
225,51.0511,17.4045257568359
226,51.0556,10.0871677398682
227,51.0593,21.4583053588867
228,51.0631,16.6408214569092
229,51.0674,6.70007038116455
230,51.0738,13.8803691864014
231,51.0772,10.246618270874
232,51.0806,9.47386264801025
233,51.0831,22.5572319030762
234,51.0892,15.0919189453125
235,51.0921,12.7575044631958
236,51.1010,18.3407497406006
237,51.1070,22.0090751647949
238,51.1095,11.2182025909424
239,51.1136,10.1282300949097
240,51.1174,16.5965003967285
241,51.1212,15.6420011520386
242,51.1251,5.4750804901123
243,51.1284,5.33127498626709
244,51.1348,18.9494228363037
245,51.1407,38.5961456298828
246,51.1442,10.6384258270264
247,51.1480,22.4481372833252
248,51.1527,38.2426910400391
249,51.1556,5.23350048065186
250,51.1606,20.5660858154297
251,51.1660,14.4069852828979
252,51.1726,5.18576669692993
253,51.1810,28.2097969055176
254,51.1882,14.5051193237305
255,51.1921,4.18604230880737
256,51.1958,26.6963558197021
257,51.1987,4.9614691734314
258,51.2029,24.6157817840576
259,51.2096,13.0864124298096
260,51.2149,24.1955509185791
261,51.2192,21.7722225189209
262,51.2242,22.0010528564453
263,51.2292,20.5657558441162
264,51.2354,21.0398578643799
265,51.2401,14.4779052734375
266,51.2477,10.0708026885986
267,51.2529,5.16296291351318
268,51.2572,13.6793489456177
269,51.2609,23.7794227600098
270,51.2654,25.2334251403809
271,51.2725,10.7080945968628
272,51.2761,21.6731414794922
273,51.2799,19.9814701080322
274,51.2849,28.6833534240723
275,51.2899,23.9442481994629
276,51.2945,31.5286159515381
277,51.2989,17.3538112640381
278,51.3044,9.40850830078125
279,51.3081,8.54505157470703
280,51.3138,13.9731550216675
281,51.3170,10.814507484436
282,51.3258,7.65619421005249
283,51.3279,34.5553894042969
284,51.3368,10.3514728546143
285,51.3414,4.61522197723389
286,51.3451,5.12377786636353
287,51.3495,7.55613851547241
288,51.3531,4.47393083572388
289,51.3581,13.5616989135742
290,51.3653,14.9176149368286
291,51.3702,29.5815010070801
292,51.3740,4.60316371917725
293,51.3781,8.5706615447998
294,51.3834,33.0575180053711
295,51.3878,12.1218318939209
296,51.3943,28.267557144165
297,51.3993,4.69221782684326
298,51.4040,22.25830078125
299,51.4102,6.63584995269775
300,51.4156,14.4839267730713
301,51.4201,19.3336696624756
302,51.4280,4.04150056838989
303,51.4312,5.0026388168335
304,51.4339,4.78572511672974
305,51.4376,13.4764680862427
306,51.4434,32.9497222900391
307,51.4459,8.16136932373047
308,51.4499,20.3556137084961
309,51.4567,26.6632480621338
310,51.4634,9.79258918762207
311,51.4676,4.52620410919189
312,51.4705,4.81806087493896
313,51.4740,20.9927005767822
314,51.4786,13.745719909668
315,51.4893,14.2381563186646
316,51.4939,5.72894811630249
317,51.4997,9.92556285858154
318,51.5049,27.8366966247559
319,51.5109,14.7533740997314
320,51.5150,6.91352844238281
321,51.5191,14.2009029388428
322,51.5236,16.0160713195801
323,51.5264,4.69851016998291
324,51.5324,5.69395112991333
325,51.5353,4.43735313415527
326,51.5376,19.7380084991455
327,51.5425,9.77891731262207
328,51.5471,10.1585340499878
329,51.5538,4.68100881576538
330,51.5574,10.6473894119263
331,51.5678,15.442419052124
332,51.5733,27.7487545013428
333,51.5768,5.72248697280884
334,51.5818,8.85571956634521
335,51.5858,18.3752384185791
336,51.5935,9.70540618896484
337,51.5978,15.0457410812378
338,51.6023,24.0767364501953
339,51.6079,9.41694068908691
340,51.6118,5.01686763763428
341,51.6180,20.3984260559082
342,51.6234,6.49203872680664
343,51.6293,4.21835374832153
344,51.6399,21.4601192474365
345,51.6442,9.34536170959473
346,51.6483,4.65535688400269
347,51.6519,11.2589473724365
348,51.6565,8.15977478027344
349,51.6604,8.91616630554199
350,51.6633,10.7626571655273
351,51.6667,5.12020015716553
352,51.6721,15.8303451538086
353,51.6747,15.5067138671875
354,51.6778,14.1399612426758
355,51.6826,12.7713270187378
356,51.6855,9.08037567138672
357,51.6895,15.6253080368042
358,51.6950,27.2218017578125
359,51.7005,14.1726226806641
360,51.7074,25.6430244445801
361,51.7122,15.0594892501831
362,51.7178,16.0988597869873
363,51.7224,18.6521701812744
364,51.7284,9.70107555389404
365,51.7330,18.9315338134766
366,51.7380,4.80672168731689
367,51.7424,11.0629272460938
368,51.7459,10.606538772583
369,51.7495,4.96377086639404
370,51.7574,9.32390880584717
371,51.7604,11.1011905670166
372,51.7665,23.167652130127
373,51.7722,10.9860668182373
374,51.7756,15.4743194580078
375,51.7789,15.6559391021729
376,51.7823,5.52158308029175
377,51.7874,15.0582275390625
378,51.7928,25.2553367614746
379,51.7967,20.3278675079346
380,51.8009,19.7816047668457
381,51.8060,36.7784118652344
382,51.8115,36.4778289794922
383,51.8188,25.7669792175293
384,51.8246,36.586986541748
385,51.8302,29.3285827636719
386,51.8355,17.3439331054688
387,51.8402,9.78861427307129
388,51.8452,16.2469825744629
389,51.8501,6.6236252784729
390,51.8553,4.78749990463257
391,51.8589,12.3626117706299
392,51.8632,14.4537534713745
393,51.8680,14.6624174118042
394,51.8717,14.3184537887573
395,51.8757,24.7118339538574
396,51.8805,21.7388153076172
397,51.8869,9.13882732391357
398,51.8913,16.1184482574463
399,51.8966,9.25691890716553
400,51.8999,4.57570743560791
401,51.9041,25.9025993347168
402,51.9093,31.1214485168457
403,51.9166,23.4078178405762
404,51.9222,15.4255046844482
405,51.9271,13.3944702148438
406,51.9317,30.3936576843262
407,51.9371,11.0255889892578
408,51.9406,22.5343818664551
409,51.9456,15.796293258667
410,51.9487,10.9589157104492
411,51.9549,14.3766269683838
412,51.9596,19.2238960266113
413,51.9644,19.3510913848877
414,51.9697,14.8731021881104
415,51.9726,4.67500782012939
416,51.9759,4.72633171081543
417,51.9804,4.64375019073486
418,51.9841,18.7065258026123
419,51.9867,6.17094612121582
420,51.9952,16.7583484649658
421,51.9987,5.70022296905518
422,52.0018,21.274715423584
423,52.0057,23.5170650482178
424,52.0142,13.8216829299927
425,52.0193,9.72472667694092
426,52.0232,5.1500883102417
427,52.0287,23.63694190979
428,52.0337,5.01316928863525
429,52.0404,10.0900850296021
430,52.0450,34.4584770202637
431,52.0498,21.1506385803223
432,52.0536,9.26255989074707
433,52.0602,31.0036773681641
434,52.0686,25.9645595550537
435,52.0745,5.12382984161377
436,52.0773,5.15972471237183
437,52.0817,13.6191911697388
438,52.0865,9.86896514892578
439,52.0889,4.61671876907349
440,52.0942,33.5168647766113
441,52.0997,5.10451412200928
442,52.1028,13.0651216506958
443,52.1065,18.5543251037598
444,52.1104,4.60848808288574
445,52.1139,9.11513423919678
446,52.1174,11.2812404632568
447,52.1224,13.3089017868042
448,52.1264,31.4938564300537
449,52.1330,5.06812381744385
450,52.1381,21.6068630218506
451,52.1457,8.5109691619873
452,52.1494,8.94564533233643
453,52.1539,16.1002235412598
454,52.1575,4.3793888092041
455,52.1607,10.607964515686
456,52.1696,9.40700626373291
457,52.1752,9.51901721954346
458,52.1784,14.157600402832
459,52.1834,16.892650604248
460,52.1890,13.4348878860474
461,52.1934,20.0986423492432
462,52.2020,23.7535667419434
463,52.2052,40.2130241394043
464,52.2092,24.4939632415771
465,52.2126,5.33308124542236
466,52.2176,18.5420703887939
467,52.2212,17.7789058685303
468,52.2301,15.330192565918
469,52.2341,21.2860927581787
470,52.2375,21.1081638336182
471,52.2407,12.8179912567139
472,52.2441,6.57689046859741
473,52.2531,27.1904907226563
474,52.2580,14.8543748855591
475,52.2620,10.0205326080322
476,52.2660,23.1444473266602
477,52.2716,4.76584529876709
478,52.2762,16.683536529541
479,52.2804,35.8220596313477
480,52.2846,8.83374309539795
481,52.2886,15.7349090576172
482,52.2965,15.1751155853271
483,52.3005,5.15370655059814
484,52.3046,33.9168128967285
485,52.3107,12.4884204864502
486,52.3155,24.7159900665283
487,52.3218,38.0194473266602
488,52.3265,10.8451595306396
489,52.3315,8.88132476806641
490,52.3373,34.613109588623
491,52.3411,4.69059419631958
492,52.3466,15.814977645874
493,52.3525,16.531925201416
494,52.3612,33.1148796081543
495,52.3679,19.127965927124
496,52.3714,26.9588470458984
497,52.3752,33.41796875
498,52.3798,33.924503326416
499,52.3848,14.8680086135864
500,52.3878,5.60862493515015
501,52.3906,25.4735069274902
502,52.3964,15.251805305481
503,52.3993,25.5284652709961
504,52.4032,27.4406890869141
505,52.4063,7.03193950653076
506,52.4118,14.5067186355591
507,52.4181,28.1986351013184
508,52.4247,13.4017562866211
509,52.4286,15.9725189208984
510,52.4311,8.55942344665527
511,52.4376,14.4388637542725
512,52.4426,9.4467134475708
513,52.4481,10.7989330291748
514,52.4529,14.7322816848755
515,52.4562,13.9454135894775
516,52.4679,23.5153923034668
517,52.4723,14.8719911575317
518,52.4766,19.8539905548096
519,52.4820,4.70696020126343
520,52.4880,9.36764049530029
521,52.4935,37.5218391418457
522,52.4993,24.096996307373
523,52.5048,16.6361446380615
524,52.5086,26.5883979797363
525,52.5125,4.46960353851318
526,52.5202,51.7265243530273
527,52.5269,33.0304336547852
528,52.5329,15.4800291061401
529,52.5360,9.29445743560791
530,52.5397,27.8104763031006
531,52.5492,18.8227195739746
532,52.5538,24.9677047729492
533,52.5611,13.9573211669922
534,52.5657,5.79043245315552
535,52.5692,15.652081489563
536,52.5740,9.86250972747803
537,52.5792,8.81053733825684
538,52.5843,23.8119716644287
539,52.5874,17.029354095459
540,52.5930,24.4664306640625
541,52.5968,9.48097705841064
542,52.6026,25.812047958374
543,52.6086,4.38174772262573
544,52.6114,19.1037559509277
545,52.6165,10.6121349334717
546,52.6229,14.7624912261963
547,52.6299,5.27696323394775
548,52.6333,4.99142932891846
549,52.6372,24.8967189788818
550,52.6424,14.75461769104
551,52.6466,26.0112819671631
552,52.6508,13.7132358551025
553,52.6550,9.42298316955566
554,52.6591,5.05590057373047
555,52.6699,5.37706708908081
556,52.6766,14.2378387451172
557,52.6800,25.7823581695557
558,52.6868,20.0877380371094
559,52.6913,18.086519241333
560,52.6951,4.66964292526245
561,52.7002,24.1045665740967
562,52.7038,30.144567489624
563,52.7078,29.9117679595947
564,52.7134,34.5679473876953
565,52.7166,14.0353212356567
566,52.7233,23.613582611084
567,52.7298,31.584997177124
568,52.7328,15.8444852828979
569,52.7363,34.1622009277344
570,52.7444,15.0548763275146
571,52.7476,2.90552878379822
572,52.7506,12.0091571807861
573,52.7557,15.815938949585
574,52.7577,11.6760749816895
575,52.7638,8.05147075653076
576,52.7688,20.1679191589355
577,52.7720,16.3425102233887
578,52.7767,4.53355407714844
579,52.7818,16.0378665924072
580,52.7846,19.8204593658447
581,52.7891,13.0091505050659
582,52.7921,4.52363300323486
583,52.7967,27.0111751556396
584,52.8002,34.9978065490723
585,52.8064,25.7944030761719
586,52.8135,43.8404541015625
587,52.8189,18.1429195404053
588,52.8256,15.4896268844604
589,52.8315,14.4401578903198
590,52.8354,22.435001373291
591,52.8416,13.1428508758545
592,52.8458,4.49155473709106
593,52.8490,23.6439571380615
594,52.8541,10.9035396575928
595,52.8574,22.3342800140381
596,52.8604,24.2752285003662
597,52.8655,28.9829959869385
598,52.8720,13.3877468109131
599,52.8761,14.0540113449097
600,52.8811,30.3249778747559
601,52.8856,18.317798614502
602,52.8892,8.41226100921631
603,52.8934,4.23422241210938
604,52.8986,9.65387344360352
605,52.9025,37.981819152832
606,52.9080,14.7401914596558
607,52.9103,14.4697523117065
608,52.9153,17.8466129302979
609,52.9200,23.5794124603271
610,52.9259,21.4693412780762
611,52.9295,11.15407371521
612,52.9338,22.6666831970215
613,52.9380,11.9015474319458
614,52.9402,22.2355136871338
615,52.9428,10.5854082107544
616,52.9475,14.2369403839111
617,52.9526,10.3834819793701
618,52.9558,25.8679351806641
619,52.9584,19.8265285491943
620,52.9616,6.10390615463257
621,52.9669,24.9285106658936
622,52.9725,13.5301866531372
623,52.9799,18.9903526306152
624,52.9837,6.41327142715454
625,52.9935,4.63595676422119
626,52.9980,4.80234384536743
627,53.0032,11.8172101974487
628,53.0055,9.84786796569824
629,53.0086,15.7130460739136
630,53.0136,5.19936561584473
631,53.0210,15.8349056243896
632,53.0241,9.60461711883545
633,53.0268,12.2074871063232
634,53.0303,15.2553081512451
635,53.0343,4.28657531738281
636,53.0371,12.1981611251831
637,53.0414,15.3933544158936
638,53.0467,22.502742767334
639,53.0540,26.9066467285156
640,53.0599,20.0381965637207
641,53.0664,19.9412307739258
642,53.0736,25.4219722747803
643,53.0781,10.4003477096558
644,53.0807,13.2065982818604
645,53.0843,19.3844299316406
646,53.0919,22.4464530944824
647,53.0950,5.15312480926514
648,53.0986,16.1789283752441
649,53.1015,29.3321475982666
650,53.1043,9.82346057891846
651,53.1085,14.8016080856323
652,53.1119,24.1660480499268
653,53.1143,21.6211643218994
654,53.1211,10.5881652832031
655,53.1245,15.1698732376099
656,53.1280,20.4755725860596
657,53.1319,17.932596206665
658,53.1363,14.7760572433472
659,53.1445,21.3278579711914
660,53.1467,9.80212688446045
661,53.1520,11.1543350219727
662,53.1606,24.6876163482666
663,53.1679,20.757884979248
664,53.1713,13.5778427124023
665,53.1744,14.1968765258789
666,53.1778,4.48958015441895
667,53.1828,30.0444641113281
668,53.1855,11.2164916992188
