#"-ESI Scan (rt: 0.059-1.022 min, 80 scans) Frag=175.0V wash3.d "
#Point,X(Thompsons),Y(Counts)
0,50.0002,10.5317249298096
1,50.0033,35.650691986084
2,50.0077,20.0213928222656
3,50.0117,11.047191619873
4,50.0169,19.158935546875
5,50.0205,9.95471477508545
6,50.0244,18.3492469787598
7,50.0268,13.8270750045776
8,50.0358,19.4733371734619
9,50.0407,20.5106830596924
10,50.0442,11.2936019897461
11,50.0472,10.3906307220459
12,50.0502,4.82686138153076
13,50.0534,22.8079204559326
14,50.0587,27.6858253479004
15,50.0628,12.1755342483521
16,50.0678,22.7591209411621
17,50.0737,13.7789535522461
18,50.0777,10.1879119873047
19,50.0828,22.3045310974121
20,50.0859,5.98580169677734
21,50.0888,10.7662410736084
22,50.0928,14.6986446380615
23,50.0955,4.24196434020996
24,50.1013,15.5939607620239
25,50.1056,11.0010433197021
26,50.1091,10.2853107452393
27,50.1120,24.002893447876
28,50.1179,9.25155067443848
29,50.1217,18.328914642334
30,50.1276,30.7207298278809
31,50.1325,21.1006183624268
32,50.1357,19.2635326385498
33,50.1409,9.43550491333008
34,50.1441,25.0181312561035
35,50.1490,19.2180442810059
36,50.1530,15.3691987991333
37,50.1574,9.21668434143066
38,50.1610,5.8459792137146
39,50.1646,17.6616325378418
40,50.1671,32.2433967590332
41,50.1720,10.9687519073486
42,50.1775,25.2033996582031
43,50.1860,5.95369815826416
44,50.1890,11.1352128982544
45,50.1919,9.31609916687012
46,50.1979,19.8146553039551
47,50.2010,7.69759273529053
48,50.2044,19.4861278533936
49,50.2091,5.37777805328369
50,50.2138,19.7589912414551
51,50.2174,9.97225570678711
52,50.2219,15.5154571533203
53,50.2262,15.0717182159424
54,50.2292,19.7352485656738
55,50.2344,8.62220096588135
56,50.2387,14.264552116394
57,50.2454,30.797155380249
58,50.2523,29.305591583252
59,50.2569,19.9571342468262
60,50.2604,12.1366405487061
61,50.2633,17.3693332672119
62,50.2668,23.9581813812256
63,50.2705,21.8624420166016
64,50.2735,9.91373920440674
65,50.2776,35.2528877258301
66,50.2844,10.064905166626
67,50.2880,9.67690944671631
68,50.2920,25.2291851043701
69,50.2968,18.8983631134033
70,50.3027,20.056453704834
71,50.3058,8.72592544555664
72,50.3129,20.6345653533936
73,50.3157,9.647047996521
74,50.3196,17.2167987823486
75,50.3244,21.0535163879395
76,50.3293,19.5455837249756
77,50.3329,9.76053047180176
78,50.3369,27.1440486907959
79,50.3400,15.9903364181519
80,50.3432,15.3541622161865
81,50.3464,5.17423152923584
82,50.3496,10.5937671661377
83,50.3525,19.2442874908447
84,50.3561,15.2783260345459
85,50.3602,20.8744697570801
86,50.3632,5.23700046539307
87,50.3671,16.1980400085449
88,50.3696,13.6763439178467
89,50.3741,4.31343746185303
90,50.3780,10.766134262085
91,50.3832,14.3453216552734
92,50.3879,10.083119392395
93,50.3919,18.4351921081543
94,50.3954,31.3716945648193
95,50.4005,24.2068290710449
96,50.4038,15.5616273880005
97,50.4063,11.7560577392578
98,50.4088,25.7222957611084
99,50.4142,42.1689033508301
100,50.4187,14.5556583404541
101,50.4217,28.9502296447754
102,50.4263,21.0148143768311
103,50.4297,5.65762805938721
104,50.4352,14.8310947418213
105,50.4392,26.7880001068115
106,50.4431,15.9128389358521
107,50.4483,10.5948362350464
108,50.4509,22.1043739318848
109,50.4586,24.3706035614014
110,50.4635,39.5614624023438
111,50.4669,13.7159423828125
112,50.4729,4.63946437835693
113,50.4765,17.991455078125
114,50.4809,9.93479347229004
115,50.4854,14.2510070800781
116,50.4898,31.9788570404053
117,50.4932,24.3975887298584
118,50.4959,30.6366081237793
119,50.5008,11.0357685089111
120,50.5037,10.5209703445435
121,50.5063,11.7370662689209
122,50.5134,27.2731132507324
123,50.5167,20.4434833526611
124,50.5259,23.4661064147949
125,50.5322,21.9282875061035
126,50.5371,53.0498580932617
127,50.5412,18.2054786682129
128,50.5447,20.6809959411621
129,50.5474,5.28992462158203
130,50.5534,27.9696559906006
131,50.5572,4.69261360168457
132,50.5602,14.5796871185303
133,50.5637,17.148853302002
134,50.5675,24.295581817627
135,50.5709,9.83625030517578
136,50.5785,15.9307956695557
137,50.5840,19.5101108551025
138,50.5898,36.9275894165039
139,50.5952,9.4558277130127
140,50.6000,32.6008110046387
141,50.6072,17.707347869873
142,50.6119,10.158655166626
143,50.6176,25.0513038635254
144,50.6261,9.62495994567871
145,50.6284,21.4117088317871
146,50.6321,4.75342988967896
147,50.6362,25.5733165740967
148,50.6399,10.1166286468506
149,50.6442,26.2401733398438
150,50.6488,10.9142551422119
151,50.6513,10.8026561737061
152,50.6549,22.3277149200439
153,50.6597,19.0022029876709
154,50.6642,12.7823848724365
155,50.6680,20.1780967712402
156,50.6720,14.1917285919189
157,50.6763,23.0284366607666
158,50.6811,5.15139818191528
159,50.6858,28.5294857025146
160,50.6912,27.1601257324219
161,50.6988,18.7941856384277
162,50.7033,15.0574235916138
163,50.7096,13.5011396408081
164,50.7168,28.0819854736328
165,50.7212,9.53589630126953
166,50.7252,23.224681854248
167,50.7292,18.2960205078125
168,50.7327,17.8642616271973
169,50.7353,12.948260307312
170,50.7390,10.00852394104
171,50.7428,10.8516473770142
172,50.7450,24.5396041870117
173,50.7478,29.2272300720215
174,50.7525,20.22141456604
175,50.7590,15.6884059906006
176,50.7626,42.1274490356445
177,50.7659,19.93821144104
178,50.7681,18.0171279907227
179,50.7727,9.90305423736572
180,50.7771,16.9568138122559
181,50.7827,26.0175724029541
182,50.7865,33.0933609008789
183,50.7949,30.2171669006348
184,50.8013,24.3330326080322
185,50.8075,7.02743816375732
186,50.8119,15.1977663040161
187,50.8160,9.48474216461182
188,50.8183,10.4516572952271
189,50.8223,20.2589569091797
190,50.8259,22.252010345459
191,50.8306,5.83283710479736
192,50.8396,22.6298217773438
193,50.8429,20.4453887939453
194,50.8470,19.1754684448242
195,50.8539,14.3927307128906
196,50.8601,4.98451709747314
197,50.8629,10.4058361053467
198,50.8680,5.97008323669434
199,50.8736,20.2651062011719
200,50.8779,31.0211143493652
201,50.8875,25.682149887085
202,50.8918,10.2742080688477
203,50.8960,2.6784200668335
204,50.8991,11.4353284835815
205,50.9019,12.2409515380859
206,50.9050,10.447925567627
207,50.9082,25.6775779724121
208,50.9151,15.5316801071167
209,50.9184,5.275390625
210,50.9235,26.546911239624
211,50.9280,19.1720523834229
212,50.9322,11.0195112228394
213,50.9378,4.50600671768188
214,50.9406,5.95300388336182
215,50.9434,19.9649868011475
216,50.9493,28.5057563781738
217,50.9529,4.47614479064941
218,50.9571,10.8506832122803
219,50.9609,29.687952041626
220,50.9649,9.56647396087646
221,50.9720,20.4560222625732
222,50.9759,13.6743516921997
223,50.9815,21.1071662902832
224,50.9868,36.3957710266113
225,50.9922,13.7735958099365
226,50.9983,40.1381378173828
227,51.0045,25.453893661499
228,51.0094,17.4966068267822
229,51.0139,21.7572231292725
230,51.0178,19.6647453308105
231,51.0240,32.7517585754395
232,51.0282,12.100209236145
233,51.0343,26.908878326416
234,51.0380,4.80701208114624
235,51.0430,15.5638275146484
236,51.0458,4.69028186798096
237,51.0494,4.84439086914063
238,51.0542,21.6158180236816
239,51.0614,22.0540370941162
240,51.0653,24.7427234649658
241,51.0702,22.2658138275146
242,51.0743,33.9022979736328
243,51.0783,20.3555641174316
244,51.0802,27.6599063873291
245,51.0835,14.9960279464722
246,51.0871,4.47636032104492
247,51.0911,26.6415252685547
248,51.0960,10.0556964874268
249,51.1001,4.16680574417114
250,51.1051,9.49768352508545
251,51.1112,28.8027248382568
252,51.1179,20.229736328125
253,51.1230,21.7491664886475
254,51.1277,52.8685836791992
255,51.1309,10.6261215209961
256,51.1339,4.68573141098022
257,51.1376,25.6027336120605
258,51.1415,31.2425479888916
259,51.1456,27.2493438720703
260,51.1512,31.9647026062012
261,51.1549,5.13543462753296
262,51.1578,20.2881336212158
263,51.1625,31.2923889160156
264,51.1710,4.78637027740479
265,51.1755,6.70661401748657
266,51.1815,33.1234855651855
267,51.1845,14.7615156173706
268,51.1890,24.1227188110352
269,51.1959,4.41508293151855
270,51.2064,8.8578405380249
271,51.2099,10.7842102050781
272,51.2127,5.18062496185303
273,51.2168,18.3119010925293
274,51.2241,8.95040416717529
275,51.2287,17.4880104064941
276,51.2359,18.1128616333008
277,51.2398,19.0388450622559
278,51.2439,10.3890733718872
279,51.2481,26.1613712310791
280,51.2583,26.8761539459229
281,51.2621,4.57150173187256
282,51.2674,24.8503265380859
283,51.2704,14.2912158966064
284,51.2779,14.7847652435303
285,51.2845,11.160270690918
286,51.2898,14.9498195648193
287,51.2953,23.759729385376
288,51.2982,4.42307376861572
289,51.3010,18.1729640960693
290,51.3074,22.2071228027344
291,51.3110,5.51442193984985
292,51.3157,13.5897312164307
293,51.3181,14.8165864944458
294,51.3211,9.76089668273926
295,51.3243,28.0968379974365
296,51.3287,34.776668548584
297,51.3335,31.2880191802979
298,51.3377,18.7406311035156
299,51.3424,19.8656978607178
300,51.3489,24.5082893371582
301,51.3538,13.0774641036987
302,51.3579,15.1601619720459
303,51.3621,8.49292182922363
304,51.3651,5.73622751235962
305,51.3701,19.1511650085449
306,51.3769,7.83901739120483
307,51.3799,11.3612699508667
308,51.3830,30.8029937744141
309,51.3870,12.9585514068604
310,51.3903,4.54426097869873
311,51.3941,32.4922332763672
312,51.3969,5.16762828826904
313,51.4011,9.90039348602295
314,51.4046,16.0261325836182
315,51.4084,18.8826961517334
316,51.4155,24.2971839904785
317,51.4193,9.28979873657227
318,51.4242,5.16418170928955
319,51.4289,31.8650016784668
320,51.4336,21.2862606048584
321,51.4376,4.96556186676025
322,51.4410,22.3668918609619
323,51.4467,35.8407249450684
324,51.4494,11.4618358612061
325,51.4525,23.7498741149902
326,51.4560,30.2602729797363
327,51.4612,15.7758541107178
328,51.4658,11.7573366165161
329,51.4688,8.69702434539795
330,51.4745,34.4052200317383
331,51.4794,30.7010459899902
332,51.4853,16.3173332214355
333,51.4897,25.5116519927979
334,51.4935,10.9904308319092
335,51.4975,10.362377166748
336,51.5015,10.5694761276245
337,51.5062,14.7899656295776
338,51.5095,10.3531951904297
339,51.5135,4.13538980484009
340,51.5181,10.6815032958984
341,51.5216,29.9633674621582
342,51.5247,14.9357576370239
343,51.5294,19.7473335266113
344,51.5340,9.55852508544922
345,51.5366,11.9624738693237
346,51.5402,5.75586080551147
347,51.5427,14.8997955322266
348,51.5455,18.387975692749
349,51.5484,15.6833267211914
350,51.5536,21.8724422454834
351,51.5590,4.67746686935425
352,51.5635,35.3266983032227
353,51.5664,9.75604057312012
354,51.5695,10.3088779449463
355,51.5751,9.35495758056641
356,51.5787,6.07655191421509
357,51.5837,22.886474609375
358,51.5883,25.5157070159912
359,51.5917,4.44167613983154
360,51.5972,25.9658012390137
361,51.6018,7.75937509536743
362,51.6047,19.8279209136963
363,51.6079,4.98275279998779
364,51.6130,17.5523872375488
365,51.6158,8.73213195800781
366,51.6205,12.414945602417
367,51.6249,23.5601215362549
368,51.6281,47.0302581787109
369,51.6309,5.19727563858032
370,51.6345,27.0583457946777
371,51.6382,26.0166168212891
372,51.6460,15.7566604614258
373,51.6505,9.44727039337158
374,51.6541,26.7523231506348
375,51.6583,36.6170463562012
376,51.6655,9.91108417510986
377,51.6761,27.9033355712891
378,51.6813,5.08613204956055
379,51.6859,37.7726249694824
380,51.6924,15.7053279876709
381,51.6953,5.10610818862915
382,51.6983,9.49362468719482
383,51.7038,9.54428291320801
384,51.7077,5.50701236724854
385,51.7101,27.6565704345703
386,51.7150,24.690185546875
387,51.7223,9.94816780090332
388,51.7266,15.3531970977783
389,51.7353,25.1430759429932
390,51.7402,5.02393245697021
391,51.7450,21.4679527282715
392,51.7486,17.6727733612061
393,51.7536,17.9845027923584
394,51.7594,20.8293647766113
395,51.7628,19.929048538208
396,51.7665,9.92965698242188
397,51.7701,10.5543155670166
398,51.7754,19.9078502655029
399,51.7796,17.0636787414551
400,51.7823,40.5767288208008
401,51.7869,5.61044025421143
402,51.7901,25.0851383209229
403,51.7934,9.93086528778076
404,51.7978,10.8391180038452
405,51.8029,12.6198921203613
406,51.8076,25.0337409973145
407,51.8128,23.3197269439697
408,51.8171,24.6233901977539
409,51.8240,4.39326953887939
410,51.8293,11.6571731567383
411,51.8338,20.9225807189941
412,51.8382,5.32723903656006
413,51.8432,9.56937313079834
414,51.8454,28.6545505523682
415,51.8516,17.832971572876
416,51.8551,19.0589637756348
417,51.8596,35.9462623596191
418,51.8634,6.15866756439209
419,51.8684,37.2762145996094
420,51.8732,7.340895652771
421,51.8776,11.9817123413086
422,51.8819,23.5423164367676
423,51.8882,16.6454772949219
424,51.8939,30.9630851745605
425,51.8983,6.16556119918823
426,51.9018,28.4561347961426
427,51.9083,40.1324043273926
428,51.9149,19.873104095459
429,51.9193,9.94900703430176
430,51.9235,25.7419166564941
431,51.9322,9.1974925994873
432,51.9351,9.40835285186768
433,51.9399,19.0756359100342
434,51.9512,34.7008590698242
435,51.9566,36.3777236938477
436,51.9613,25.0973567962646
437,51.9651,16.3822135925293
438,51.9730,4.23106527328491
439,51.9763,5.47060012817383
440,51.9803,20.5925025939941
441,51.9847,12.2538757324219
442,51.9886,9.64998435974121
443,51.9925,31.9460144042969
444,52.0000,22.4004287719727
445,52.0034,10.3664855957031
446,52.0092,23.5593032836914
447,52.0138,14.2059993743896
448,52.0200,24.2258834838867
449,52.0246,4.67518711090088
450,52.0282,27.1157379150391
451,52.0325,33.0466003417969
452,52.0368,24.3765926361084
453,52.0442,29.5269737243652
454,52.0489,10.5050706863403
455,52.0540,15.0323209762573
456,52.0605,9.71965503692627
457,52.0646,13.7839908599854
458,52.0704,23.5327739715576
459,52.0782,14.3891906738281
460,52.0820,10.0643444061279
461,52.0850,20.3239994049072
462,52.0905,12.9150066375732
463,52.0944,5.04757261276245
464,52.0977,26.3824577331543
465,52.1021,11.4135417938232
466,52.1061,15.0232286453247
467,52.1107,21.0504512786865
468,52.1152,27.1748752593994
469,52.1214,24.7054710388184
470,52.1247,4.39276933670044
471,52.1278,4.90432739257813
472,52.1310,15.1709384918213
473,52.1352,8.64105415344238
474,52.1383,11.0593004226685
475,52.1424,14.3883056640625
476,52.1467,21.9061164855957
477,52.1504,33.0267868041992
478,52.1543,4.22548151016235
479,52.1584,29.5568428039551
480,52.1621,4.94035339355469
481,52.1660,28.202127456665
482,52.1710,9.23971080780029
483,52.1751,9.16422080993652
484,52.1806,41.4712104797363
485,52.1863,4.69311952590942
486,52.1924,34.4239883422852
487,52.1969,21.2347774505615
488,52.1993,15.8411350250244
489,52.2046,10.2381563186646
490,52.2098,18.3877239227295
491,52.2189,13.0621004104614
492,52.2224,5.36250019073486
493,52.2274,16.4718933105469
494,52.2330,18.688325881958
495,52.2362,15.2228374481201
496,52.2423,9.73848915100098
497,52.2467,24.5796031951904
498,52.2523,28.6266574859619
499,52.2555,19.6282958984375
500,52.2603,3.88115262985229
501,52.2647,14.9458713531494
502,52.2676,26.1860256195068
503,52.2703,16.2411918640137
504,52.2764,10.8000860214233
505,52.2851,27.640832901001
506,52.2926,19.6157608032227
507,52.2983,16.6407413482666
508,52.3022,16.5864009857178
509,52.3074,16.1480388641357
510,52.3120,14.5649671554565
511,52.3154,14.459698677063
512,52.3199,13.0554456710815
513,52.3245,25.187952041626
514,52.3290,23.8327941894531
515,52.3325,6.60323095321655
516,52.3380,28.6550693511963
517,52.3419,9.43813037872314
518,52.3476,5.38956689834595
519,52.3508,25.5918960571289
520,52.3530,24.8980045318604
521,52.3578,23.8844356536865
522,52.3606,20.6895866394043
523,52.3715,22.0264873504639
524,52.3734,10.0384674072266
525,52.3782,13.9104051589966
526,52.3830,27.7069797515869
527,52.3872,33.58544921875
528,52.3908,4.8108491897583
529,52.3963,20.7563285827637
530,52.3994,21.7159786224365
531,52.4040,14.467191696167
532,52.4072,15.0170955657959
533,52.4112,15.6270341873169
534,52.4170,5.88749980926514
535,52.4224,27.001033782959
536,52.4282,5.48613452911377
537,52.4312,26.8089962005615
538,52.4358,9.48708152770996
539,52.4394,4.67833185195923
540,52.4431,23.0709896087646
541,52.4476,15.6516399383545
542,52.4528,19.9491882324219
543,52.4579,28.384313583374
544,52.4679,32.4160842895508
545,52.4728,11.125
546,52.4804,4.83867359161377
547,52.4835,38.0304718017578
548,52.4877,16.6274719238281
549,52.4935,20.2421970367432
550,52.4983,20.55544090271
551,52.5007,9.33904838562012
552,52.5100,24.9020099639893
553,52.5147,22.5424995422363
554,52.5175,16.4762058258057
555,52.5227,28.3172187805176
556,52.5286,19.7400093078613
557,52.5329,20.4596481323242
558,52.5369,23.9559783935547
559,52.5438,14.364767074585
560,52.5470,4.89554023742676
561,52.5543,4.55173444747925
562,52.5581,5.26137685775757
563,52.5615,22.6090431213379
564,52.5654,17.1776714324951
565,52.5777,18.9407806396484
566,52.5800,15.2391109466553
567,52.5865,29.9168491363525
568,52.5918,5.16555213928223
569,52.5960,14.8907041549683
570,52.6006,23.4740829467773
571,52.6042,5.03378105163574
572,52.6071,10.0303421020508
573,52.6151,25.958215713501
574,52.6245,5.85391426086426
575,52.6352,31.1930122375488
576,52.6393,10.2185411453247
577,52.6435,10.4877223968506
578,52.6468,5.51610279083252
579,52.6497,11.5231103897095
580,52.6568,14.4943599700928
581,52.6608,14.4020309448242
582,52.6641,9.89091205596924
583,52.6681,4.94428253173828
584,52.6765,29.1312713623047
585,52.6822,9.43818855285645
586,52.6868,4.73889827728271
587,52.6906,17.7738342285156
588,52.6974,17.3961772918701
589,52.7008,24.5079517364502
590,52.7059,37.054817199707
591,52.7117,15.8174085617065
592,52.7148,20.6885890960693
593,52.7180,4.45092010498047
594,52.7217,18.6342372894287
595,52.7252,38.1370887756348
596,52.7308,41.5526123046875
597,52.7350,17.2934417724609
598,52.7401,20.6364593505859
599,52.7459,4.40188121795654
600,52.7490,10.0286741256714
601,52.7518,4.69473695755005
602,52.7584,4.77519702911377
603,52.7617,39.0316848754883
604,52.7661,9.96932506561279
605,52.7715,19.2678203582764
606,52.7761,34.7633628845215
607,52.7824,26.1784820556641
608,52.7862,25.0512161254883
609,52.7913,10.0604581832886
610,52.7956,23.250129699707
611,52.8020,5.70302486419678
612,52.8053,23.2140560150146
613,52.8120,11.8558406829834
614,52.8188,14.4323778152466
615,52.8248,24.1457672119141
616,52.8309,14.89976978302
617,52.8342,4.82533359527588
618,52.8373,15.1167879104614
619,52.8428,8.95637130737305
620,52.8489,21.0675106048584
621,52.8550,11.302360534668
622,52.8592,17.8798294067383
623,52.8631,5.09297561645508
624,52.8665,16.8047943115234
625,52.8686,17.1107063293457
626,52.8753,25.0166454315186
627,52.8808,14.9091005325317
628,52.8858,8.9029598236084
629,52.8911,50.503231048584
630,52.8957,11.4255676269531
631,52.8999,27.3515110015869
632,52.9058,10.0442771911621
633,52.9107,20.96750831604
634,52.9159,5.12258243560791
635,52.9196,15.6341857910156
636,52.9225,10.965802192688
637,52.9261,12.2750148773193
638,52.9296,45.1296806335449
639,52.9345,15.480110168457
640,52.9378,6.36522388458252
641,52.9413,10.2311992645264
642,52.9445,24.3656902313232
643,52.9502,4.96035575866699
644,52.9550,12.1991119384766
645,52.9578,14.4423341751099
646,52.9622,20.9890251159668
647,52.9662,15.5455827713013
648,52.9746,10.5004024505615
649,52.9812,9.45389556884766
650,52.9857,27.1449375152588
651,52.9910,3.53950166702271
652,52.9940,14.3212337493896
653,52.9973,21.7163600921631
654,53.0048,27.738748550415
655,53.0093,24.913646697998
656,53.0151,29.1158905029297
657,53.0188,11.715277671814
658,53.0216,26.3203239440918
659,53.0259,25.7334480285645
660,53.0311,24.6531925201416
661,53.0338,26.8704643249512
662,53.0384,14.1269865036011
663,53.0412,16.586742401123
664,53.0451,12.4457302093506
665,53.0491,24.4146385192871
666,53.0535,9.26671314239502
667,53.0589,16.2401256561279
668,53.0629,24.0694637298584
669,53.0704,19.6009044647217
