#"-ESI Scan (rt: 0.038-1.024 min, 82 scans) Frag=175.0V wash22.d "
#Point,X(Thompsons),Y(Counts)
0,50.0083,14.5234537124634
1,50.0118,22.4840717315674
2,50.0153,17.1189498901367
3,50.0206,13.8034906387329
4,50.0253,4.4851336479187
5,50.0308,14.597559928894
6,50.0376,14.2102737426758
7,50.0403,8.96403121948242
8,50.0445,21.0530223846436
9,50.0502,15.3048944473267
10,50.0543,10.2198133468628
11,50.0581,11.397777557373
12,50.0626,9.18799781799316
13,50.0660,9.08710956573486
14,50.0699,15.3614082336426
15,50.0728,15.6484136581421
16,50.0769,29.6043968200684
17,50.0844,9.21579360961914
18,50.0891,14.1948747634888
19,50.0936,5.23136854171753
20,50.0968,9.69311332702637
21,50.1010,22.0962677001953
22,50.1060,7.4580979347229
23,50.1094,21.2833652496338
24,50.1132,4.9634222984314
25,50.1162,8.43141651153564
26,50.1209,32.3587112426758
27,50.1270,12.1827478408813
28,50.1311,10.9831991195679
29,50.1381,43.397819519043
30,50.1422,11.1282444000244
31,50.1454,11.5061616897583
32,50.1497,37.3560905456543
33,50.1539,15.704140663147
34,50.1564,37.4307022094727
35,50.1599,18.2499828338623
36,50.1631,23.0811214447021
37,50.1676,5.27954578399658
38,50.1729,19.600435256958
39,50.1790,28.9060802459717
40,50.1841,9.60604763031006
41,50.1887,3.01798319816589
42,50.1914,14.9183006286621
43,50.2023,25.4645366668701
44,50.2092,30.9309921264648
45,50.2131,14.8257522583008
46,50.2189,9.93208885192871
47,50.2234,15.5153722763062
48,50.2281,9.73238468170166
49,50.2308,5.04548978805542
50,50.2349,14.8113565444946
51,50.2398,9.57129383087158
52,50.2446,33.884449005127
53,50.2481,5.38461542129517
54,50.2516,20.2750606536865
55,50.2558,6.02486085891724
56,50.2595,12.6703042984009
57,50.2631,4.3095064163208
58,50.2675,10.1955327987671
59,50.2759,19.0689792633057
60,50.2800,9.02429294586182
61,50.2838,4.3902440071106
62,50.2878,21.3964958190918
63,50.2922,9.20020771026611
64,50.2954,5.21252155303955
65,50.2985,9.16552734375
66,50.3047,14.2648077011108
67,50.3102,5.83206844329834
68,50.3135,10.5588064193726
69,50.3197,21.7161960601807
70,50.3252,8.70536327362061
71,50.3295,8.87260150909424
72,50.3327,9.18892478942871
73,50.3372,5.0162296295166
74,50.3402,15.4381523132324
75,50.3437,22.7321338653564
76,50.3459,8.26445007324219
77,50.3507,12.0425682067871
78,50.3572,14.7243013381958
79,50.3619,4.3537278175354
80,50.3645,6.68687200546265
81,50.3675,6.10885143280029
82,50.3711,25.4201698303223
83,50.3751,4.54641962051392
84,50.3809,15.4815464019775
85,50.3853,8.94227695465088
86,50.3904,27.6781578063965
87,50.3940,4.04911184310913
88,50.3981,10.2719087600708
89,50.4021,23.6351261138916
90,50.4069,22.1824321746826
91,50.4105,13.9811458587646
92,50.4147,10.4964399337769
93,50.4220,9.93687152862549
94,50.4261,6.07394742965698
95,50.4306,9.41211986541748
96,50.4348,14.0423698425293
97,50.4422,20.4042930603027
98,50.4489,26.4990863800049
99,50.4561,10.648458480835
100,50.4592,19.8622188568115
101,50.4620,10.0873804092407
102,50.4687,24.7604713439941
103,50.4737,14.6353788375854
104,50.4763,11.8452930450439
105,50.4799,4.86051845550537
106,50.4834,21.5305213928223
107,50.4878,24.4305782318115
108,50.4937,12.7543926239014
109,50.4974,11.884861946106
110,50.5006,9.69582271575928
111,50.5050,18.5489864349365
112,50.5095,13.2564086914063
113,50.5133,8.89165210723877
114,50.5165,8.85218048095703
115,50.5210,15.2658195495605
116,50.5240,14.7796182632446
117,50.5284,9.07109260559082
118,50.5331,20.653564453125
119,50.5375,5.78795480728149
120,50.5406,24.8097610473633
121,50.5473,24.1567516326904
122,50.5522,24.8091869354248
123,50.5571,4.76238775253296
124,50.5625,11.4210662841797
125,50.5680,5.1318678855896
126,50.5704,14.8268642425537
127,50.5732,4.3182635307312
128,50.5766,18.7509288787842
129,50.5799,13.7308530807495
130,50.5823,10.5601253509521
131,50.5854,16.4792785644531
132,50.5921,10.8428611755371
133,50.5976,9.56561088562012
134,50.6022,11.4829502105713
135,50.6055,11.2626037597656
136,50.6093,18.6782455444336
137,50.6118,15.2347354888916
138,50.6166,14.1091575622559
139,50.6202,13.7600355148315
140,50.6222,9.32507419586182
141,50.6293,30.1143703460693
142,50.6364,16.832483291626
143,50.6403,10.5949735641479
144,50.6444,16.0685043334961
145,50.6462,4.59816932678223
146,50.6508,4.26964998245239
147,50.6534,10.200475692749
148,50.6566,17.8066253662109
149,50.6613,10.9870519638062
150,50.6670,24.4657421112061
151,50.6732,13.8166265487671
152,50.6761,20.8257389068604
153,50.6829,30.5042514801025
154,50.6870,22.9086456298828
155,50.6927,15.1816349029541
156,50.6955,4.73542451858521
157,50.7031,11.1761379241943
158,50.7068,18.4924583435059
159,50.7104,4.51355123519897
160,50.7135,23.284309387207
161,50.7173,11.8471460342407
162,50.7261,9.5790901184082
163,50.7294,15.1607990264893
164,50.7320,10.1974191665649
165,50.7351,6.52932977676392
166,50.7393,13.241039276123
167,50.7442,13.4818563461304
168,50.7486,4.37627601623535
169,50.7543,28.8756637573242
170,50.7591,8.88124084472656
171,50.7619,9.69684791564941
172,50.7676,18.2333889007568
173,50.7714,13.9472150802612
174,50.7782,10.418417930603
175,50.7802,11.4281148910522
176,50.7864,5.21825075149536
177,50.7892,4.76389265060425
178,50.7946,13.8444061279297
179,50.7981,8.97385311126709
180,50.8015,10.8299560546875
181,50.8045,10.8583650588989
182,50.8090,9.44776916503906
183,50.8130,23.9475135803223
184,50.8195,4.48157262802124
185,50.8228,5.61177158355713
186,50.8254,10.4688396453857
187,50.8284,4.49322605133057
188,50.8325,9.42537307739258
189,50.8373,21.0508441925049
190,50.8419,22.2435665130615
191,50.8455,21.9364223480225
192,50.8501,10.4631242752075
193,50.8581,19.4978122711182
194,50.8615,14.6494960784912
195,50.8648,21.9077930450439
196,50.8686,28.3112640380859
197,50.8734,5.96389532089233
198,50.8792,16.026439666748
199,50.8837,15.5404577255249
200,50.8885,16.1041278839111
201,50.8933,16.4685039520264
202,50.8984,15.1280193328857
203,50.9022,20.8640098571777
204,50.9070,19.3534030914307
205,50.9106,11.341968536377
206,50.9133,19.0005016326904
207,50.9169,12.9960613250732
208,50.9218,14.4560384750366
209,50.9242,10.5065927505493
210,50.9318,29.4707565307617
211,50.9374,37.0417175292969
212,50.9427,13.8442220687866
213,50.9476,27.5775413513184
214,50.9525,8.7900505065918
215,50.9553,20.284948348999
216,50.9601,16.308650970459
217,50.9637,10.5949106216431
218,50.9680,15.5415935516357
219,50.9708,9.5027379989624
220,50.9755,25.0712051391602
221,50.9837,9.59619522094727
222,50.9866,21.95654296875
223,50.9903,33.4602165222168
224,50.9944,15.4876203536987
225,50.9990,24.7539691925049
226,51.0037,10.1091356277466
227,51.0117,7.6972599029541
228,51.0175,15.1508893966675
229,51.0204,15.4212112426758
230,51.0247,45.1073188781738
231,51.0291,23.7695484161377
232,51.0331,10.3461923599243
233,51.0366,10.6353731155396
234,51.0439,4.90981721878052
235,51.0478,14.8683214187622
236,51.0504,35.5071563720703
237,51.0543,9.97853374481201
238,51.0588,4.31903886795044
239,51.0619,23.6161212921143
240,51.0653,4.62753391265869
241,51.0701,14.206524848938
242,51.0751,14.5237846374512
243,51.0780,5.40474891662598
244,51.0808,14.5455675125122
245,51.0861,19.5250511169434
246,51.0892,16.0019855499268
247,51.0925,4.95299196243286
248,51.0973,17.2008209228516
249,51.1008,21.7994651794434
250,51.1035,10.873387336731
251,51.1117,20.6413478851318
252,51.1155,21.5268077850342
253,51.1188,13.5439958572388
254,51.1242,34.0851860046387
255,51.1319,14.3592185974121
256,51.1351,10.7025756835938
257,51.1395,14.0063896179199
258,51.1458,4.746413230896
259,51.1485,12.9648065567017
260,51.1573,5.7001953125
261,51.1617,8.9359245300293
262,51.1672,18.4914703369141
263,51.1727,8.76509094238281
264,51.1825,25.4856281280518
265,51.1859,23.2455387115479
266,51.1889,18.4756603240967
267,51.1937,17.1471462249756
268,51.1993,10.0141582489014
269,51.2059,16.7994556427002
270,51.2105,14.2780494689941
271,51.2141,12.8258695602417
272,51.2179,4.40774869918823
273,51.2203,19.891960144043
274,51.2281,18.0586986541748
275,51.2321,4.23024702072144
276,51.2351,16.9006862640381
277,51.2380,5.36751270294189
278,51.2415,19.132926940918
279,51.2447,11.3252115249634
280,51.2499,14.0414686203003
281,51.2539,8.48395442962646
282,51.2600,4.41513729095459
283,51.2642,40.219654083252
284,51.2738,25.16139793396
285,51.2770,19.5190906524658
286,51.2801,16.4105033874512
287,51.2859,14.3406105041504
288,51.2901,39.5510330200195
289,51.2948,18.085657119751
290,51.2984,19.5701999664307
291,51.3024,10.1925573348999
292,51.3054,30.5183620452881
293,51.3103,14.8855667114258
294,51.3132,4.69664621353149
295,51.3191,19.1679515838623
296,51.3229,9.81188678741455
297,51.3287,38.6698837280273
298,51.3333,11.2967195510864
299,51.3368,13.51344871521
300,51.3412,17.395450592041
301,51.3477,12.8994112014771
302,51.3522,17.6546497344971
303,51.3556,21.4113883972168
304,51.3599,10.4105548858643
305,51.3639,34.9319076538086
306,51.3731,20.5368232727051
307,51.3791,26.7919216156006
308,51.3841,9.6135892868042
309,51.3875,10.4281320571899
310,51.3923,9.72298717498779
311,51.3959,4.44173955917358
312,51.4010,10.174412727356
313,51.4039,4.86873626708984
314,51.4101,15.4793758392334
315,51.4128,4.82415008544922
316,51.4162,15.0988321304321
317,51.4196,5.26832580566406
318,51.4234,9.60056018829346
319,51.4284,7.18271636962891
320,51.4316,15.5906028747559
321,51.4379,4.2675461769104
322,51.4414,15.2730560302734
323,51.4470,40.7081985473633
324,51.4504,4.04697370529175
325,51.4548,31.6318874359131
326,51.4601,4.24119329452515
327,51.4636,9.87563514709473
328,51.4677,15.8994140625
329,51.4712,9.34832191467285
330,51.4755,5.51715135574341
331,51.4826,4.89299774169922
332,51.4854,13.970832824707
333,51.4957,4.6087646484375
334,51.4991,25.5894393920898
335,51.5023,5.15347290039063
336,51.5081,22.2311992645264
337,51.5135,19.4162540435791
338,51.5182,19.0620021820068
339,51.5252,4.37986421585083
340,51.5285,35.2354354858398
341,51.5334,8.92362976074219
342,51.5371,21.6001300811768
343,51.5408,19.2689170837402
344,51.5456,21.8783264160156
345,51.5511,20.4690265655518
346,51.5595,15.9560394287109
347,51.5616,18.6434020996094
348,51.5643,10.7323522567749
349,51.5689,13.7591581344604
350,51.5729,11.444860458374
351,51.5785,34.3847198486328
352,51.5855,19.8810520172119
353,51.5893,5.14138269424438
354,51.5943,18.7687816619873
355,51.5983,21.3585090637207
356,51.6051,11.1604766845703
357,51.6081,18.5664119720459
358,51.6140,18.8966388702393
359,51.6190,6.43340492248535
360,51.6253,25.7845287322998
361,51.6294,33.1184272766113
362,51.6331,10.1174383163452
363,51.6363,9.68789196014404
364,51.6408,24.0076065063477
365,51.6458,14.8340339660645
366,51.6538,29.1825103759766
367,51.6583,15.8011741638184
368,51.6613,18.0610771179199
369,51.6671,35.0034332275391
370,51.6725,4.50814008712769
371,51.6755,4.35369110107422
372,51.6794,20.5904846191406
373,51.6844,24.760181427002
374,51.6889,13.9173641204834
375,51.6923,21.4377918243408
376,51.6952,10.8075323104858
377,51.6997,30.9398460388184
378,51.7073,13.4085426330566
379,51.7126,18.4215869903564
380,51.7187,14.7400617599487
381,51.7232,10.6503000259399
382,51.7278,11.2306051254272
383,51.7325,22.0043048858643
384,51.7361,14.4278917312622
385,51.7416,13.9515333175659
386,51.7495,4.6970591545105
387,51.7543,10.9561395645142
388,51.7588,32.5337753295898
389,51.7614,9.77862739562988
390,51.7653,15.80810546875
391,51.7696,4.45572757720947
392,51.7752,26.3415584564209
393,51.7801,31.1666221618652
394,51.7873,29.7150936126709
395,51.7911,21.3162403106689
396,51.7946,17.7442207336426
397,51.8010,10.466944694519
398,51.8054,10.4016647338867
399,51.8094,26.1083984375
400,51.8128,13.9671583175659
401,51.8170,5.00726985931396
402,51.8208,21.0326099395752
403,51.8304,9.32665157318115
404,51.8371,24.0479698181152
405,51.8403,9.27313423156738
406,51.8433,11.0879936218262
407,51.8479,11.1757125854492
408,51.8522,19.9913425445557
409,51.8560,9.72917175292969
410,51.8595,9.65548896789551
411,51.8678,20.5075988769531
412,51.8718,9.92578315734863
413,51.8758,9.50841426849365
414,51.8792,14.0475196838379
415,51.8837,24.4794654846191
416,51.8890,10.1433792114258
417,51.8932,24.199764251709
418,51.8978,19.112943649292
419,51.9045,9.97823429107666
420,51.9096,11.2235136032104
421,51.9158,4.36016273498535
422,51.9203,9.65268898010254
423,51.9223,4.85106372833252
424,51.9253,9.57273483276367
425,51.9310,4.47267913818359
426,51.9355,16.2028980255127
427,51.9394,4.79464292526245
428,51.9428,15.2345314025879
429,51.9490,19.2296237945557
430,51.9527,12.0774269104004
431,51.9561,19.6494579315186
432,51.9646,14.1328153610229
433,51.9678,4.83197975158691
434,51.9708,9.20245552062988
435,51.9756,4.25348424911499
436,51.9796,4.97985172271729
437,51.9856,6.11874198913574
438,51.9896,19.5121955871582
439,51.9941,13.9343919754028
440,51.9997,9.99991226196289
441,52.0033,4.7348051071167
442,52.0076,5.3788366317749
443,52.0136,24.7336025238037
444,52.0187,23.7522010803223
445,52.0226,35.9980964660645
446,52.0288,27.1272621154785
447,52.0313,10.8116159439087
448,52.0341,16.5006561279297
449,52.0376,5.50867128372192
450,52.0452,19.8335113525391
451,52.0494,10.2156429290771
452,52.0555,10.7982425689697
453,52.0589,20.0345783233643
454,52.0628,4.94808530807495
455,52.0674,9.30359363555908
456,52.0731,13.4951095581055
457,52.0779,9.22770309448242
458,52.0841,4.50232982635498
459,52.0878,10.0505084991455
460,52.0951,13.9534320831299
461,52.1036,5.14847564697266
462,52.1090,21.2067337036133
463,52.1126,23.6859512329102
464,52.1172,20.4979286193848
465,52.1236,15.2428112030029
466,52.1334,4.94891452789307
467,52.1361,14.9512062072754
468,52.1405,15.1236543655396
469,52.1450,9.20365524291992
470,52.1532,13.0678787231445
471,52.1567,9.91661167144775
472,52.1602,9.46053218841553
473,52.1648,19.6686992645264
474,52.1689,10.3380146026611
475,52.1730,10.1432008743286
476,52.1772,20.6210060119629
477,52.1803,9.72952938079834
478,52.1839,15.3574962615967
479,52.1877,16.2506542205811
480,52.1910,4.97354221343994
481,52.1942,10.8943767547607
482,52.1979,33.6981658935547
483,52.2023,11.3135585784912
484,52.2079,21.207462310791
485,52.2116,23.6323013305664
486,52.2249,10.7075805664063
487,52.2332,15.8336067199707
488,52.2373,18.4812526702881
489,52.2427,9.41762733459473
490,52.2458,4.65733242034912
491,52.2500,13.5534410476685
492,52.2560,4.96098327636719
493,52.2602,10.5176315307617
494,52.2647,19.573429107666
495,52.2682,4.5157470703125
496,52.2710,15.3839168548584
497,52.2760,14.8119611740112
498,52.2795,9.54268741607666
499,52.2883,31.8357677459717
500,52.2923,6.08706760406494
501,52.2954,21.2069187164307
502,52.2986,5.01777935028076
503,52.3074,8.75598430633545
504,52.3116,24.5955390930176
505,52.3146,26.6347885131836
506,52.3180,9.43279266357422
507,52.3217,19.3269824981689
508,52.3266,19.6417694091797
509,52.3301,9.77060413360596
510,52.3337,21.5060443878174
511,52.3391,11.1170644760132
512,52.3423,28.0585403442383
513,52.3471,9.84351444244385
514,52.3506,21.0349750518799
515,52.3543,8.91745090484619
516,52.3619,20.186544418335
517,52.3701,10.4672327041626
518,52.3724,19.625919342041
519,52.3785,18.6791839599609
520,52.3820,4.7696475982666
521,52.3852,28.9105319976807
522,52.3910,13.2259683609009
523,52.3949,24.9223670959473
524,52.4033,19.785364151001
525,52.4061,9.02924537658691
526,52.4148,4.38119554519653
527,52.4194,20.525857925415
528,52.4247,29.6626453399658
529,52.4296,4.54861116409302
530,52.4346,5.37137937545776
531,52.4415,10.9833564758301
532,52.4495,9.53501892089844
533,52.4565,15.8353509902954
534,52.4605,33.0775985717773
535,52.4682,40.155632019043
536,52.4728,20.5565929412842
537,52.4767,12.717306137085
538,52.4812,4.92683601379395
539,52.4854,20.3319759368896
540,52.4898,14.6690721511841
541,52.4931,10.9271717071533
542,52.4960,8.78021049499512
543,52.5007,14.0581350326538
544,52.5045,9.40159511566162
545,52.5084,15.1355810165405
546,52.5106,5.08547067642212
547,52.5134,14.8393287658691
548,52.5182,27.0970344543457
549,52.5228,4.48715543746948
550,52.5284,11.178994178772
551,52.5328,19.583065032959
552,52.5401,6.90102052688599
553,52.5450,23.6383152008057
554,52.5485,13.7536725997925
555,52.5526,22.572093963623
556,52.5576,9.79806709289551
557,52.5634,8.89085865020752
558,52.5724,9.8212194442749
559,52.5765,4.88302850723267
560,52.5793,9.62135791778564
561,52.5826,11.6906661987305
562,52.5880,10.0330114364624
563,52.5903,8.94220542907715
564,52.5944,28.1786403656006
565,52.6003,14.4191446304321
566,52.6099,9.54792404174805
567,52.6146,15.855938911438
568,52.6191,4.03985929489136
569,52.6218,20.1976490020752
570,52.6268,45.0818557739258
571,52.6327,13.0885877609253
572,52.6370,16.1793174743652
573,52.6422,45.0003890991211
574,52.6476,34.5379028320313
575,52.6535,4.54573154449463
576,52.6580,5.14736032485962
577,52.6635,15.4950370788574
578,52.6683,9.15881538391113
579,52.6715,4.82039594650269
580,52.6758,9.26867389678955
581,52.6796,12.9983606338501
582,52.6819,14.6009817123413
583,52.6858,10.3800363540649
584,52.6884,4.76829957962036
585,52.6925,13.9246845245361
586,52.6967,4.56781148910522
587,52.6997,15.2668905258179
588,52.7052,11.5422010421753
589,52.7092,4.51818752288818
590,52.7143,19.2455291748047
591,52.7182,20.5705051422119
592,52.7245,6.46167898178101
593,52.7281,4.85669946670532
594,52.7314,5.0998067855835
595,52.7368,19.069055557251
596,52.7396,4.41600513458252
597,52.7429,11.0983915328979
598,52.7466,9.29016017913818
599,52.7489,5.74846315383911
600,52.7548,14.1615753173828
601,52.7594,20.1534271240234
602,52.7630,4.30522966384888
603,52.7662,13.7994785308838
604,52.7727,41.7200317382813
605,52.7785,23.4830055236816
606,52.7820,21.2729816436768
607,52.7888,30.1831836700439
608,52.7930,16.8505477905273
609,52.7960,4.52275133132935
610,52.7988,6.09581279754639
611,52.8028,22.5172595977783
612,52.8061,5.84369707107544
613,52.8108,36.0213470458984
614,52.8155,15.3999080657959
615,52.8192,5.74401140213013
616,52.8231,8.78521728515625
617,52.8272,4.805495262146
618,52.8310,23.911111831665
619,52.8362,4.68871974945068
620,52.8395,15.5105876922607
621,52.8434,14.3847017288208
622,52.8476,10.0733852386475
623,52.8501,4.57727813720703
624,52.8558,8.01560974121094
625,52.8597,15.4914627075195
626,52.8643,12.9671812057495
627,52.8677,6.27603387832642
628,52.8707,36.8373260498047
629,52.8796,14.9058094024658
630,52.8852,23.1369876861572
631,52.8923,14.5604543685913
632,52.8957,4.38531923294067
633,52.9017,10.0849103927612
634,52.9071,14.5947294235229
635,52.9116,9.53478717803955
636,52.9153,8.94899559020996
637,52.9184,25.4195709228516
638,52.9213,9.38547611236572
639,52.9257,35.9375381469727
640,52.9296,14.283821105957
641,52.9358,6.81265354156494
642,52.9418,10.4518041610718
643,52.9456,20.2019691467285
644,52.9507,41.9800300598145
645,52.9573,21.131778717041
646,52.9671,16.0880451202393
647,52.9713,26.6087207794189
648,52.9772,29.037145614624
649,52.9820,10.8103685379028
650,52.9847,38.5279350280762
651,52.9898,17.5118579864502
652,52.9929,14.725136756897
653,52.9984,18.8015308380127
654,53.0034,17.6137065887451
655,53.0087,16.257043838501
656,53.0122,12.411283493042
657,53.0175,11.3345308303833
658,53.0207,15.1814413070679
659,53.0248,16.7108325958252
660,53.0290,8.91418743133545
661,53.0334,13.801399230957
662,53.0372,38.4184150695801
663,53.0415,24.9201183319092
664,53.0460,9.70348262786865
665,53.0524,14.9346714019775
666,53.0565,23.8396644592285
667,53.0612,13.4323310852051
668,53.0663,27.5214729309082
669,53.0695,4.49382781982422
