#"-ESI Scan (rt: 0.055-1.017 min, 80 scans) Frag=175.0V wash7B.d "
#Point,X(Thompsons),Y(Counts)
0,50.0055,13.5297756195068
1,50.0111,4.39887666702271
2,50.0144,16.7889099121094
3,50.0191,14.8326816558838
4,50.0223,7.0643310546875
5,50.0259,10.1699113845825
6,50.0311,29.2032737731934
7,50.0358,21.4260520935059
8,50.0401,14.3933000564575
9,50.0430,13.4519710540771
10,50.0464,29.3620491027832
11,50.0528,19.3593044281006
12,50.0570,9.44499397277832
13,50.0626,9.63833713531494
14,50.0658,10.2232303619385
15,50.0685,14.6496429443359
16,50.0758,19.9380321502686
17,50.0797,4.36540174484253
18,50.0871,4.57901811599731
19,50.0901,13.6021270751953
20,50.0931,5.01233386993408
21,50.1001,19.9662322998047
22,50.1107,20.7037868499756
23,50.1149,10.7947368621826
24,50.1185,22.9729518890381
25,50.1220,14.5038480758667
26,50.1251,9.02281284332275
27,50.1293,17.7615566253662
28,50.1329,19.4184379577637
29,50.1369,4.65391254425049
30,50.1438,13.5019655227661
31,50.1482,22.4654655456543
32,50.1514,9.86552906036377
33,50.1555,9.92948341369629
34,50.1598,8.49544906616211
35,50.1640,16.2116050720215
36,50.1666,15.5219755172729
37,50.1704,5.16851234436035
38,50.1732,13.5489654541016
39,50.1787,4.42190265655518
40,50.1847,5.48690891265869
41,50.1880,10.6182918548584
42,50.1948,5.09506177902222
43,50.2067,10.5058879852295
44,50.2109,15.4421768188477
45,50.2156,8.57707118988037
46,50.2213,21.7539749145508
47,50.2256,5.3932671546936
48,50.2289,4.67421865463257
49,50.2316,10.3198270797729
50,50.2361,11.9816007614136
51,50.2394,4.29428672790527
52,50.2423,18.4065761566162
53,50.2470,27.7757759094238
54,50.2513,15.2394943237305
55,50.2539,11.4026918411255
56,50.2583,4.71528387069702
57,50.2614,26.1134834289551
58,50.2662,16.4973831176758
59,50.2695,5.9576678276062
60,50.2750,17.7466163635254
61,50.2790,10.5639333724976
62,50.2851,14.0717639923096
63,50.2877,5.16256809234619
64,50.2930,25.7174072265625
65,50.2974,31.130615234375
66,50.3023,15.2601108551025
67,50.3062,4.64497089385986
68,50.3121,4.78957653045654
69,50.3166,22.2729473114014
70,50.3207,8.13408088684082
71,50.3262,14.996600151062
72,50.3293,5.94602489471436
73,50.3377,24.4945621490479
74,50.3417,10.6025228500366
75,50.3453,20.7405662536621
76,50.3519,9.67642021179199
77,50.3574,14.9660587310791
78,50.3608,28.168888092041
79,50.3670,15.6625423431396
80,50.3694,9.87493705749512
81,50.3735,34.7249526977539
82,50.3773,4.90814113616943
83,50.3803,15.8960361480713
84,50.3845,19.9345664978027
85,50.3887,14.0494337081909
86,50.3938,22.0717964172363
87,50.4017,9.72455787658691
88,50.4068,28.9225654602051
89,50.4120,10.8650636672974
90,50.4163,5.15654468536377
91,50.4209,9.11056709289551
92,50.4240,19.7236518859863
93,50.4286,4.20836687088013
94,50.4337,13.6659116744995
95,50.4372,4.48121500015259
96,50.4411,17.9473628997803
97,50.4442,12.6663522720337
98,50.4471,4.39000988006592
99,50.4505,18.9427795410156
100,50.4563,24.4688930511475
101,50.4608,24.6269073486328
102,50.4697,9.56116771697998
103,50.4766,10.0620012283325
104,50.4804,9.66391372680664
105,50.4857,37.7308387756348
106,50.4924,36.9736404418945
107,50.4975,4.78904294967651
108,50.5014,14.8779754638672
109,50.5073,20.3554496765137
110,50.5114,26.6428928375244
111,50.5172,20.2557258605957
112,50.5275,5.03950452804565
113,50.5339,4.22790861129761
114,50.5392,19.7625617980957
115,50.5420,5.85260677337646
116,50.5456,21.4954814910889
117,50.5502,14.0187864303589
118,50.5557,10.0508441925049
119,50.5593,9.23524475097656
120,50.5621,10.5766592025757
121,50.5712,25.3676567077637
122,50.5763,6.14200448989868
123,50.5834,4.43305921554565
124,50.5900,9.84681129455566
125,50.5955,14.7360095977783
126,50.5990,16.7223072052002
127,50.6030,14.5851926803589
128,50.6085,12.7633495330811
129,50.6108,5.29584074020386
130,50.6160,14.7218933105469
131,50.6209,24.4928588867188
132,50.6267,15.2800197601318
133,50.6314,21.1219291687012
134,50.6355,9.50400638580322
135,50.6387,9.82076072692871
136,50.6421,4.44612693786621
137,50.6452,4.36281633377075
138,50.6507,22.2313041687012
139,50.6563,30.7765235900879
140,50.6637,8.79218482971191
141,50.6666,18.8288955688477
142,50.6706,12.6943483352661
143,50.6760,17.2902717590332
144,50.6830,10.4973802566528
145,50.6884,5.31888294219971
146,50.6945,21.8610019683838
147,50.7021,20.8445739746094
148,50.7080,4.43993473052979
149,50.7136,40.3020896911621
150,50.7172,4.72741460800171
151,50.7226,18.7621994018555
152,50.7260,10.4795055389404
153,50.7299,5.15800094604492
154,50.7379,43.6235160827637
155,50.7426,16.6508750915527
156,50.7462,5.79724407196045
157,50.7500,5.08737659454346
158,50.7550,30.2710762023926
159,50.7599,25.9854393005371
160,50.7646,17.3676719665527
161,50.7682,19.8443965911865
162,50.7741,9.87818717956543
163,50.7805,26.890552520752
164,50.7837,13.4312534332275
165,50.7888,11.6931819915771
166,50.7922,4.57325124740601
167,50.7968,9.24582958221436
168,50.8024,13.8345060348511
169,50.8050,18.4331398010254
170,50.8104,28.2384643554688
171,50.8157,16.8219966888428
172,50.8196,9.11326599121094
173,50.8247,8.80938148498535
174,50.8304,26.0640926361084
175,50.8381,27.2465934753418
176,50.8435,17.4612216949463
177,50.8493,14.7639894485474
178,50.8533,14.3301343917847
179,50.8582,18.3764343261719
180,50.8604,26.32297706604
181,50.8650,13.5246992111206
182,50.8677,4.86400032043457
183,50.8708,13.2775402069092
184,50.8743,4.8545560836792
185,50.8774,4.51332807540894
186,50.8825,22.1542205810547
187,50.8862,5.1004810333252
188,50.8904,39.9794654846191
189,50.8987,4.78310537338257
190,50.9037,13.9356632232666
191,50.9079,4.63749980926514
192,50.9111,35.635871887207
193,50.9158,8.97168445587158
194,50.9202,15.7200412750244
195,50.9271,24.849630355835
196,50.9326,14.4411725997925
197,50.9391,24.2521305084229
198,50.9440,10.5561676025391
199,50.9476,24.6491851806641
200,50.9527,10.2670364379883
201,50.9549,9.53864479064941
202,50.9590,9.53020477294922
203,50.9628,10.6375169754028
204,50.9664,15.0070295333862
205,50.9710,23.655912399292
206,50.9773,21.4746036529541
207,50.9800,15.5122728347778
208,50.9860,13.5073909759521
209,50.9971,9.88486289978027
210,51.0014,26.7173614501953
211,51.0059,6.18886184692383
212,51.0108,18.5836524963379
213,51.0142,9.87308025360107
214,51.0190,26.843957901001
215,51.0243,31.494873046875
216,51.0272,20.0105037689209
217,51.0311,13.3726272583008
218,51.0343,13.2429752349854
219,51.0376,5.08766937255859
220,51.0417,10.5517330169678
221,51.0453,11.2797574996948
222,51.0485,14.7442979812622
223,51.0537,17.2230567932129
224,51.0580,19.7373504638672
225,51.0629,10.2445049285889
226,51.0665,15.9740200042725
227,51.0710,17.417423248291
228,51.0748,10.9492969512939
229,51.0814,16.3881683349609
230,51.0850,17.3110618591309
231,51.0882,18.5989379882813
232,51.0939,16.5063209533691
233,51.0979,4.81371688842773
234,51.1045,10.3173847198486
235,51.1084,14.572003364563
236,51.1142,18.9373893737793
237,51.1180,9.19758224487305
238,51.1261,10.2712459564209
239,51.1311,9.11233329772949
240,51.1360,28.2512760162354
241,51.1408,14.4816761016846
242,51.1490,26.2140445709229
243,51.1529,8.99929618835449
244,51.1563,15.7700910568237
245,51.1614,9.10208988189697
246,51.1669,18.8840484619141
247,51.1705,14.8420534133911
248,51.1749,17.0934391021729
249,51.1771,6.42780208587646
250,51.1807,16.2666664123535
251,51.1845,12.0752515792847
252,51.1920,19.8371772766113
253,51.1966,29.7134456634521
254,51.2042,20.987621307373
255,51.2091,5.10481548309326
256,51.2129,30.3809661865234
257,51.2190,15.0447063446045
258,51.2236,25.3667888641357
259,51.2315,19.1203479766846
260,51.2375,18.1304054260254
261,51.2414,9.16556930541992
262,51.2454,6.05066347122192
263,51.2498,14.680196762085
264,51.2536,19.4741687774658
265,51.2568,17.0910720825195
266,51.2605,5.271897315979
267,51.2646,12.6539974212646
268,51.2693,9.88081932067871
269,51.2736,16.8170547485352
270,51.2810,10.3240594863892
271,51.2855,24.4297580718994
272,51.2906,6.24586200714111
273,51.2946,13.9108381271362
274,51.3004,4.56064510345459
275,51.3038,18.6448345184326
276,51.3085,4.82729244232178
277,51.3145,19.4244594573975
278,51.3245,10.4596271514893
279,51.3274,19.3173809051514
280,51.3335,14.1165113449097
281,51.3392,6.01505136489868
282,51.3442,10.1544017791748
283,51.3477,8.50215148925781
284,51.3513,16.0405464172363
285,51.3559,4.27160739898682
286,51.3595,13.7471132278442
287,51.3632,9.51465511322021
288,51.3683,22.1134719848633
289,51.3724,17.8991355895996
290,51.3770,14.3834047317505
291,51.3806,7.00615978240967
292,51.3837,17.1235313415527
293,51.3909,14.0266971588135
294,51.3947,22.0088958740234
295,51.3996,13.426251411438
296,51.4039,5.21813344955444
297,51.4074,10.7458181381226
298,51.4107,12.9678449630737
299,51.4146,5.27040910720825
300,51.4201,10.1057157516479
301,51.4265,25.8694877624512
302,51.4317,4.71260404586792
303,51.4361,13.1938247680664
304,51.4562,9.0988883972168
305,51.4601,12.5173492431641
306,51.4647,27.2019100189209
307,51.4690,4.91362476348877
308,51.4726,9.2962589263916
309,51.4776,14.9949626922607
310,51.4811,7.03763866424561
311,51.4854,4.70196294784546
312,51.4882,15.0521602630615
313,51.4922,21.6257934570313
314,51.4976,24.5543899536133
315,51.5021,16.15207862854
316,51.5051,4.48858022689819
317,51.5086,4.81443977355957
318,51.5170,12.5406436920166
319,51.5204,5.10146570205688
320,51.5257,15.0968198776245
321,51.5298,11.5155162811279
322,51.5338,4.32205867767334
323,51.5386,29.834300994873
324,51.5455,20.2774200439453
325,51.5536,4.42012214660645
326,51.5601,10.8338985443115
327,51.5635,6.04611301422119
328,51.5690,4.44748020172119
329,51.5719,19.2314109802246
330,51.5804,15.4324321746826
331,51.5830,9.60637378692627
332,51.5862,5.35560321807861
333,51.5899,15.9556274414063
334,51.5943,14.3204784393311
335,51.5984,14.8377780914307
336,51.6024,8.77299976348877
337,51.6065,22.8354358673096
338,51.6119,19.5316734313965
339,51.6181,15.2189178466797
340,51.6250,9.76060485839844
341,51.6286,9.09015464782715
342,51.6344,19.9779300689697
343,51.6393,15.56662940979
344,51.6443,15.1606578826904
345,51.6477,6.28664541244507
346,51.6544,5.10756349563599
347,51.6582,4.921875
348,51.6645,5.38900232315063
349,51.6724,4.91767597198486
350,51.6795,32.6781997680664
351,51.6893,9.36977958679199
352,51.6953,19.3098011016846
353,51.6991,4.82597970962524
354,51.7107,23.7548637390137
355,51.7182,23.1046581268311
356,51.7252,5.99243497848511
357,51.7325,4.71344089508057
358,51.7353,9.2626895904541
359,51.7401,4.32938098907471
360,51.7440,9.99357032775879
361,51.7486,13.3052768707275
362,51.7536,9.5001859664917
363,51.7565,26.3395729064941
364,51.7622,22.8528957366943
365,51.7693,10.2336072921753
366,51.7738,24.3361568450928
367,51.7794,4.52831840515137
368,51.7837,15.4036893844604
369,51.7889,24.7472801208496
370,51.7962,16.5822334289551
371,51.8002,4.50015449523926
372,51.8037,4.82917881011963
373,51.8098,18.7135124206543
374,51.8157,19.2873439788818
375,51.8235,19.4339351654053
376,51.8285,39.0613822937012
377,51.8353,25.094482421875
378,51.8391,23.5339775085449
379,51.8422,4.24010419845581
380,51.8474,6.59062480926514
381,51.8525,22.8423118591309
382,51.8580,4.14291381835938
383,51.8617,4.51146221160889
384,51.8660,10.2062816619873
385,51.8716,14.7985172271729
386,51.8750,30.4095191955566
387,51.8864,10.5721635818481
388,51.8891,10.1118106842041
389,51.8931,11.2748050689697
390,51.8958,5.10706377029419
391,51.9029,9.31576347351074
392,51.9072,10.4306411743164
393,51.9116,19.0549907684326
394,51.9163,9.06408309936523
395,51.9230,15.8281021118164
396,51.9268,5.02006578445435
397,51.9303,12.0334272384644
398,51.9341,30.5318088531494
399,51.9368,18.97536277771
400,51.9420,15.9122142791748
401,51.9501,9.62285137176514
402,51.9524,16.9348602294922
403,51.9549,10.1668033599854
404,51.9590,14.3841047286987
405,51.9677,14.3356504440308
406,51.9705,4.97952938079834
407,51.9753,9.80073261260986
408,51.9800,15.6951627731323
409,51.9865,24.07493019104
410,51.9914,13.8691987991333
411,51.9980,20.0837860107422
412,52.0014,9.36259651184082
413,52.0092,5.02209329605103
414,52.0142,5.52318000793457
415,52.0195,33.0794830322266
416,52.0238,4.53552532196045
417,52.0280,14.7762269973755
418,52.0340,11.3456468582153
419,52.0392,38.621509552002
420,52.0429,10.0650224685669
421,52.0462,9.13563823699951
422,52.0492,5.20221948623657
423,52.0534,14.6476230621338
424,52.0599,15.0134706497192
425,52.0631,9.65186595916748
426,52.0658,26.9259948730469
427,52.0695,16.3133850097656
428,52.0738,20.7437934875488
429,52.0817,22.1922721862793
430,52.0867,30.7052822113037
431,52.0935,9.11309814453125
432,52.0970,11.7214517593384
433,52.1006,9.54294013977051
434,52.1043,9.4540958404541
435,52.1090,24.2435569763184
436,52.1112,10.1387634277344
437,52.1161,31.6978874206543
438,52.1209,19.5044631958008
439,52.1257,10.6175289154053
440,52.1282,10.0882005691528
441,52.1354,33.7109680175781
442,52.1387,16.6560974121094
443,52.1422,15.2091655731201
444,52.1445,14.1788988113403
445,52.1474,29.6222133636475
446,52.1536,4.7006196975708
447,52.1571,10.6778011322021
448,52.1602,5.61377811431885
449,52.1643,13.8942966461182
450,52.1723,2.95207118988037
451,52.1755,4.98131036758423
452,52.1805,21.8017845153809
453,52.1861,5.37084054946899
454,52.1906,47.2328948974609
455,52.1959,31.9699440002441
456,52.2012,9.19246101379395
457,52.2070,15.4112701416016
458,52.2171,5.54421901702881
459,52.2209,36.3934135437012
460,52.2263,30.5123634338379
461,52.2304,12.5384502410889
462,52.2348,16.3439712524414
463,52.2400,15.3549556732178
464,52.2473,4.91337728500366
465,52.2523,14.7894973754883
466,52.2582,30.4772090911865
467,52.2627,9.62856483459473
468,52.2658,14.8568677902222
469,52.2692,5.33802652359009
470,52.2785,15.980936050415
471,52.2823,4.88180541992188
472,52.2865,14.4343843460083
473,52.2892,9.36421680450439
474,52.2928,15.4484710693359
475,52.2987,23.4099311828613
476,52.3031,2.96805715560913
477,52.3081,20.4117679595947
478,52.3136,5.0381007194519
479,52.3172,10.2171802520752
480,52.3206,9.48992919921875
481,52.3261,24.0861949920654
482,52.3338,14.3603363037109
483,52.3390,16.7159614562988
484,52.3429,19.3211212158203
485,52.3500,15.1680879592896
486,52.3566,16.093334197998
487,52.3630,12.0025691986084
488,52.3671,14.1065368652344
489,52.3779,5.27659177780151
490,52.3815,20.2047958374023
491,52.3869,13.7834749221802
492,52.3929,5.24902009963989
493,52.4011,4.54362487792969
494,52.4055,17.6639747619629
495,52.4161,9.08570289611816
496,52.4207,4.26394319534302
497,52.4244,15.2872800827026
498,52.4341,18.8925609588623
499,52.4410,28.583703994751
500,52.4457,21.1544075012207
501,52.4492,8.90123558044434
502,52.4543,9.23423767089844
503,52.4614,8.81147956848145
504,52.4649,11.6399660110474
505,52.4717,27.7430477142334
506,52.4769,10.8587951660156
507,52.4797,4.05008840560913
508,52.4829,5.30160665512085
509,52.4860,6.46683359146118
510,52.4917,22.0057411193848
511,52.4969,15.3919467926025
512,52.5008,4.94039916992188
513,52.5041,11.0400867462158
514,52.5066,4.93362522125244
515,52.5128,9.73934936523438
516,52.5174,5.53266143798828
517,52.5202,15.9469203948975
518,52.5250,20.2557258605957
519,52.5298,10.5098419189453
520,52.5344,9.06445789337158
521,52.5374,9.45511817932129
522,52.5422,24.1604862213135
523,52.5466,20.213451385498
524,52.5503,17.840633392334
525,52.5547,10.480019569397
526,52.5592,17.3918380737305
527,52.5695,5.29216289520264
528,52.5721,10.4673595428467
529,52.5778,5.31125164031982
530,52.5812,19.988582611084
531,52.5873,13.2242097854614
532,52.5920,10.0956678390503
533,52.5954,9.83880043029785
534,52.5991,28.6153507232666
535,52.6033,19.744499206543
536,52.6082,15.7389373779297
537,52.6127,24.506275177002
538,52.6179,21.2208385467529
539,52.6230,10.1451053619385
540,52.6270,9.18320846557617
541,52.6312,9.31985473632813
542,52.6362,22.1430320739746
543,52.6422,13.6569271087646
544,52.6452,5.28203105926514
545,52.6496,14.2099761962891
546,52.6547,26.388692855835
547,52.6580,17.2050971984863
548,52.6637,16.1679401397705
549,52.6682,30.2761344909668
550,52.6757,16.7200889587402
551,52.6798,4.88911962509155
552,52.6837,13.4474277496338
553,52.6910,34.9047470092773
554,52.6947,16.5984230041504
555,52.6988,20.9603137969971
556,52.7035,19.0063247680664
557,52.7068,12.8318328857422
558,52.7103,5.49118137359619
559,52.7142,8.30012035369873
560,52.7176,12.9614896774292
561,52.7259,16.3230819702148
562,52.7308,16.2042770385742
563,52.7355,12.1748113632202
564,52.7385,10.1321544647217
565,52.7413,15.3150758743286
566,52.7461,9.77309703826904
567,52.7505,14.6584672927856
568,52.7536,10.0716123580933
569,52.7631,16.1388511657715
570,52.7675,10.8043804168701
571,52.7739,4.42324542999268
572,52.7794,27.3099250793457
573,52.7832,25.5494346618652
574,52.7885,23.9928741455078
575,52.7937,10.5093803405762
576,52.7969,5.07506132125854
577,52.7999,9.23699760437012
578,52.8057,16.1844577789307
579,52.8091,14.4893035888672
580,52.8161,4.772376537323
581,52.8209,16.6550712585449
582,52.8257,5.61384391784668
583,52.8301,9.28419589996338
584,52.8334,15.695556640625
585,52.8390,18.0192985534668
586,52.8513,27.8418216705322
587,52.8547,6.85226440429688
588,52.8598,10.1351289749146
589,52.8654,10.5489015579224
590,52.8681,5.15106821060181
591,52.8745,18.2773323059082
592,52.8789,11.8983821868896
593,52.8941,15.2731781005859
594,52.8967,10.3571720123291
595,52.9046,10.22727394104
596,52.9074,13.0406398773193
597,52.9131,30.2923583984375
598,52.9169,10.8514175415039
599,52.9222,18.6403503417969
600,52.9262,19.1984615325928
601,52.9323,10.6853914260864
602,52.9372,14.6528367996216
603,52.9421,5.16797542572021
604,52.9459,15.3961925506592
605,52.9489,4.6847825050354
606,52.9554,20.3736839294434
607,52.9613,24.3598213195801
608,52.9714,36.5957908630371
609,52.9744,8.98200511932373
610,52.9794,9.84579753875732
611,52.9838,5.53364276885986
612,52.9910,11.6797733306885
613,52.9957,14.9718580245972
614,52.9995,4.59806251525879
615,53.0038,5.78582429885864
616,53.0111,14.5888090133667
617,53.0138,16.8638954162598
618,53.0173,10.3957233428955
619,53.0234,5.48906230926514
620,53.0265,20.2629127502441
621,53.0317,24.5873584747314
622,53.0372,11.2361335754395
623,53.0401,19.4009208679199
624,53.0462,16.1441802978516
625,53.0528,6.77449035644531
626,53.0562,11.3687705993652
627,53.0592,4.25527763366699
628,53.0659,20.9838066101074
629,53.0785,11.1648511886597
630,53.0849,19.2689476013184
631,53.0918,31.0193786621094
632,53.0976,14.3014574050903
633,53.1028,17.1305084228516
634,53.1085,5.16258716583252
635,53.1121,8.69698333740234
636,53.1182,20.2222270965576
637,53.1237,25.4750652313232
638,53.1287,13.1891355514526
639,53.1319,4.84749984741211
640,53.1353,4.4228310585022
641,53.1389,17.6600475311279
642,53.1448,19.3354415893555
643,53.1511,10.9938993453979
644,53.1545,8.39323997497559
645,53.1600,10.9426803588867
646,53.1639,10.8776683807373
647,53.1671,5.7023868560791
648,53.1741,35.7462882995605
649,53.1791,10.1473178863525
650,53.1829,14.0609312057495
651,53.1875,34.2817573547363
652,53.1930,5.16289043426514
653,53.1982,4.31975746154785
654,53.2043,11.7772035598755
655,53.2108,5.3524956703186
656,53.2138,15.2151918411255
657,53.2244,26.2366847991943
658,53.2290,10.0802354812622
659,53.2333,20.0865268707275
660,53.2392,13.4975156784058
661,53.2460,11.7151203155518
662,53.2521,29.044261932373
663,53.2571,10.5101928710938
664,53.2604,6.38620615005493
665,53.2652,10.9663715362549
666,53.2725,26.5770378112793
667,53.2771,16.2473335266113
668,53.2845,9.00481986999512
