#"-ESI Scan (rt: 0.054-1.017 min, 80 scans) Frag=175.0V wash18B.d "
#Point,X(Thompsons),Y(Counts)
0,50.0026,20.067813873291
1,50.0085,9.75529384613037
2,50.0124,11.1958646774292
3,50.0183,9.56706237792969
4,50.0232,5.73820400238037
5,50.0260,32.9748878479004
6,50.0309,9.23532295227051
7,50.0375,9.61328601837158
8,50.0450,10.0771436691284
9,50.0490,17.1998291015625
10,50.0590,14.31751537323
11,50.0648,15.98850440979
12,50.0709,10.5933399200439
13,50.0736,15.9578018188477
14,50.0788,14.7828826904297
15,50.0862,12.3174991607666
16,50.0916,21.0723209381104
17,50.0962,9.26857566833496
18,50.1001,4.82984781265259
19,50.1031,5.70359992980957
20,50.1070,15.2373065948486
21,50.1123,21.2324829101563
22,50.1165,23.3832130432129
23,50.1226,14.1210966110229
24,50.1271,35.5096626281738
25,50.1321,7.60001611709595
26,50.1354,14.5768566131592
27,50.1392,28.693811416626
28,50.1444,21.3115901947021
29,50.1493,10.5215759277344
30,50.1569,9.69848918914795
31,50.1641,11.1721744537354
32,50.1686,14.7511615753174
33,50.1719,15.1998748779297
34,50.1767,4.78313732147217
35,50.1798,5.48439788818359
36,50.1855,25.3581428527832
37,50.1903,26.463321685791
38,50.1939,6.09030437469482
39,50.1966,48.5420417785645
40,50.2015,16.1408500671387
41,50.2055,15.4017696380615
42,50.2082,10.7844390869141
43,50.2149,14.1967010498047
44,50.2188,21.363618850708
45,50.2227,15.6317644119263
46,50.2268,22.271427154541
47,50.2303,20.9050884246826
48,50.2351,30.4131870269775
49,50.2379,5.07600069046021
50,50.2424,19.9450416564941
51,50.2470,9.57349967956543
52,50.2507,15.7625780105591
53,50.2536,9.98795127868652
54,50.2568,22.6463356018066
55,50.2602,5.00568628311157
56,50.2646,14.2183456420898
57,50.2685,15.9683685302734
58,50.2729,20.475399017334
59,50.2764,19.2343902587891
60,50.2802,9.12105846405029
61,50.2827,10.4299774169922
62,50.2870,10.8254680633545
63,50.2903,18.9248104095459
64,50.2946,14.6431121826172
65,50.3009,23.0052299499512
66,50.3050,6.50482082366943
67,50.3099,18.4806938171387
68,50.3161,19.5711631774902
69,50.3204,5.20224666595459
70,50.3231,19.787784576416
71,50.3277,29.1398735046387
72,50.3305,9.27795600891113
73,50.3344,21.600076675415
74,50.3388,5.3378734588623
75,50.3443,10.606351852417
76,50.3493,31.449499130249
77,50.3535,9.97077369689941
78,50.3571,26.3659572601318
79,50.3615,20.689395904541
80,50.3664,14.2588024139404
81,50.3693,15.2887392044067
82,50.3741,15.2429075241089
83,50.3770,24.8253116607666
84,50.3814,7.51112842559814
85,50.3864,10.456805229187
86,50.3887,10.9712162017822
87,50.3921,18.4914150238037
88,50.3986,10.3860397338867
89,50.4028,10.3232421875
90,50.4064,12.5683727264404
91,50.4110,4.71467399597168
92,50.4150,24.4547061920166
93,50.4208,15.8365650177002
94,50.4243,7.01837015151978
95,50.4272,5.00687980651855
96,50.4339,10.6268510818481
97,50.4402,5.24861574172974
98,50.4447,24.6425342559814
99,50.4508,31.7524070739746
100,50.4574,5.47919797897339
101,50.4611,5.42989110946655
102,50.4643,31.586498260498
103,50.4668,16.077522277832
104,50.4703,14.7673034667969
105,50.4750,14.4918727874756
106,50.4788,14.5583591461182
107,50.4811,11.4342546463013
108,50.4871,15.1859083175659
109,50.4894,11.4218521118164
110,50.4950,5.15876579284668
111,50.4984,24.6040287017822
112,50.5100,4.62271118164063
113,50.5134,15.1310834884644
114,50.5185,5.42552089691162
115,50.5236,21.5168209075928
116,50.5294,19.5357570648193
117,50.5358,30.4591312408447
118,50.5385,9.33770942687988
119,50.5441,12.1555404663086
120,50.5466,15.4193286895752
121,50.5523,20.5690269470215
122,50.5591,4.65156269073486
123,50.5634,20.0770969390869
124,50.5673,4.67570209503174
125,50.5701,4.79258060455322
126,50.5738,14.5816631317139
127,50.5775,4.99239110946655
128,50.5844,40.4591369628906
129,50.5917,14.4268064498901
130,50.5947,4.88055896759033
131,50.5977,15.9967498779297
132,50.6004,5.05969142913818
133,50.6045,10.4608335494995
134,50.6092,4.80260896682739
135,50.6131,13.0684509277344
136,50.6167,19.2306880950928
137,50.6238,5.41717386245728
138,50.6286,10.2616577148438
139,50.6322,19.233549118042
140,50.6394,26.843505859375
141,50.6450,9.67665100097656
142,50.6487,6.52924346923828
143,50.6522,9.29376411437988
144,50.6565,19.5497894287109
145,50.6607,10.1203966140747
146,50.6644,4.61280298233032
147,50.6676,17.8894386291504
148,50.6704,4.45140600204468
149,50.6755,20.5025367736816
150,50.6796,26.4171504974365
151,50.6831,4.75932025909424
152,50.6896,9.24432563781738
153,50.6972,10.0912837982178
154,50.7039,15.8742828369141
155,50.7067,16.5671882629395
156,50.7120,17.3725910186768
157,50.7147,10.971529006958
158,50.7187,4.48068857192993
159,50.7231,4.56680631637573
160,50.7261,9.42113494873047
161,50.7323,15.1172847747803
162,50.7366,9.79845428466797
163,50.7400,19.2616157531738
164,50.7461,19.02077293396
165,50.7499,15.2764463424683
166,50.7536,19.4552631378174
167,50.7582,10.5840625762939
168,50.7624,15.6022396087646
169,50.7673,15.9094181060791
170,50.7703,4.61472320556641
171,50.7738,10.1253719329834
172,50.7774,21.2818145751953
173,50.7827,24.4345436096191
174,50.7878,9.18696308135986
175,50.7925,9.88474559783936
176,50.7977,14.8586473464966
177,50.8032,12.1698436737061
178,50.8080,22.9017295837402
179,50.8137,23.2556095123291
180,50.8191,9.46080303192139
181,50.8240,14.7903747558594
182,50.8284,5.06553554534912
183,50.8326,10.0099458694458
184,50.8358,6.60940170288086
185,50.8398,4.57941150665283
186,50.8427,16.419921875
187,50.8459,11.6895179748535
188,50.8497,10.668797492981
189,50.8540,5.01338005065918
190,50.8580,16.9497909545898
191,50.8611,9.16870880126953
192,50.8658,26.8831062316895
193,50.8704,27.8839054107666
194,50.8730,5.11790561676025
195,50.8767,14.9730653762817
196,50.8798,21.3394927978516
197,50.8841,13.6808166503906
198,50.8875,10.3057222366333
199,50.8913,17.0949115753174
200,50.8966,14.7329378128052
201,50.9047,33.5025672912598
202,50.9091,16.7858619689941
203,50.9137,41.8623085021973
204,50.9178,16.8050270080566
205,50.9229,30.1807651519775
206,50.9281,5.21514797210693
207,50.9368,9.57908821105957
208,50.9429,11.7211027145386
209,50.9473,11.9893445968628
210,50.9516,16.391881942749
211,50.9540,20.0087261199951
212,50.9642,15.4101991653442
213,50.9699,7.85694646835327
214,50.9740,24.1759281158447
215,50.9769,12.3876056671143
216,50.9815,27.7674598693848
217,50.9850,15.4063215255737
218,50.9900,14.9438571929932
219,50.9947,39.4077377319336
220,50.9990,29.0662899017334
221,51.0031,17.6395454406738
222,51.0075,38.7806854248047
223,51.0130,5.56081008911133
224,51.0172,21.0839710235596
225,51.0242,14.4356937408447
226,51.0269,9.84487152099609
227,51.0306,6.47768640518188
228,51.0347,5.58927392959595
229,51.0388,21.7346801757813
230,51.0422,18.3542556762695
231,51.0458,6.12461137771606
232,51.0486,7.76204061508179
233,51.0511,10.8742017745972
234,51.0544,4.55473470687866
235,51.0587,9.97536182403564
236,51.0654,5.30759620666504
237,51.0685,9.36971855163574
238,51.0721,16.4436416625977
239,51.0754,4.83961391448975
240,51.0807,11.4111328125
241,51.0842,32.6616287231445
242,51.0891,4.78813505172729
243,51.0922,5.30540704727173
244,51.0957,21.560619354248
245,51.1023,9.49003028869629
246,51.1080,14.5600099563599
247,51.1144,10.936261177063
248,51.1183,20.7156715393066
249,51.1228,21.6351203918457
250,51.1262,10.602518081665
251,51.1299,9.42690467834473
252,51.1344,25.111421585083
253,51.1388,15.0567245483398
254,51.1421,15.1142654418945
255,51.1451,11.3251066207886
256,51.1481,10.4491147994995
257,51.1527,14.7783203125
258,51.1589,17.7047843933105
259,51.1660,10.6410808563232
260,51.1710,21.7174911499023
261,51.1769,25.9407920837402
262,51.1811,18.2049961090088
263,51.1838,11.8594455718994
264,51.1869,17.3563575744629
265,51.1899,30.3372459411621
266,51.1962,20.7429447174072
267,51.1994,19.9569511413574
268,51.2025,25.3056468963623
269,51.2059,10.8153896331787
270,51.2096,7.29875564575195
271,51.2133,10.6070280075073
272,51.2171,15.7080564498901
273,51.2227,12.5733995437622
274,51.2280,39.074779510498
275,51.2334,25.143383026123
276,51.2383,14.805908203125
277,51.2411,11.8911781311035
278,51.2460,5.68920946121216
279,51.2484,10.5300340652466
280,51.2527,32.5974769592285
281,51.2582,21.8862113952637
282,51.2630,7.24227809906006
283,51.2720,10.207896232605
284,51.2799,10.2802305221558
285,51.2846,11.3292770385742
286,51.2937,28.3534736633301
287,51.2986,11.5920810699463
288,51.3020,24.9496574401855
289,51.3042,4.64230108261108
290,51.3080,10.0474376678467
291,51.3136,32.7507400512695
292,51.3169,36.7336540222168
293,51.3207,9.8889102935791
294,51.3240,13.5986967086792
295,51.3283,19.2794342041016
296,51.3347,16.4447231292725
297,51.3403,10.3088788986206
298,51.3470,14.2497844696045
299,51.3530,14.1374740600586
300,51.3574,26.2987518310547
301,51.3608,16.9368495941162
302,51.3645,9.09919452667236
303,51.3674,13.7088651657104
304,51.3701,8.75394821166992
305,51.3738,19.3544330596924
306,51.3807,3.2235119342804
307,51.3835,9.65362358093262
308,51.3886,17.8754005432129
309,51.3949,9.60930728912354
310,51.3988,14.9229173660278
311,51.4021,4.88905143737793
312,51.4058,24.7022647857666
313,51.4108,4.90468740463257
314,51.4144,5.16581678390503
315,51.4174,9.73553657531738
316,51.4210,39.6161460876465
317,51.4256,20.1869773864746
318,51.4324,4.64497089385986
319,51.4353,9.61268138885498
320,51.4405,9.63054084777832
321,51.4429,23.5394172668457
322,51.4475,11.6599674224854
323,51.4535,21.8795680999756
324,51.4583,10.218300819397
325,51.4627,26.0273532867432
326,51.4662,9.98808002471924
327,51.4704,34.6485786437988
328,51.4749,8.91656017303467
329,51.4773,23.0800971984863
330,51.4862,15.6050262451172
331,51.4925,43.5843391418457
332,51.5014,16.0940818786621
333,51.5046,4.47831630706787
334,51.5074,19.8787117004395
335,51.5139,17.5816555023193
336,51.5168,5.57451581954956
337,51.5203,16.2919807434082
338,51.5260,10.023157119751
339,51.5297,16.6958847045898
340,51.5358,11.1237201690674
341,51.5390,20.6995792388916
342,51.5426,4.58524084091187
343,51.5455,4.59452486038208
344,51.5486,19.902416229248
345,51.5541,20.7157230377197
346,51.5591,6.21749973297119
347,51.5644,16.8522548675537
348,51.5667,10.7044315338135
349,51.5725,16.4657707214355
350,51.5762,21.6960906982422
351,51.5795,19.9963684082031
352,51.5836,10.0317840576172
353,51.5868,7.50273036956787
354,51.5943,15.3638181686401
355,51.5974,4.67159938812256
356,51.6023,19.6114349365234
357,51.6058,18.2136993408203
358,51.6155,5.1599760055542
359,51.6193,5.92104530334473
360,51.6227,4.90722513198853
361,51.6260,20.1523857116699
362,51.6288,5.27514743804932
363,51.6317,20.5664196014404
364,51.6358,24.634937286377
365,51.6386,17.2335090637207
366,51.6440,5.25818538665771
367,51.6473,4.46836757659912
368,51.6503,9.31091690063477
369,51.6540,9.39281177520752
370,51.6572,12.8103084564209
371,51.6670,18.227855682373
372,51.6714,23.5037651062012
373,51.6789,40.2333183288574
374,51.6841,37.6009902954102
375,51.6901,11.0274124145508
376,51.6961,9.95948791503906
377,51.7009,24.6543216705322
378,51.7073,16.7373542785645
379,51.7107,32.8156623840332
380,51.7169,21.4294967651367
381,51.7221,15.5276851654053
382,51.7269,28.3940677642822
383,51.7315,5.63598537445068
384,51.7365,16.8947658538818
385,51.7426,14.1166734695435
386,51.7465,15.629732131958
387,51.7535,25.9575099945068
388,51.7622,11.6153106689453
389,51.7655,19.7223091125488
390,51.7698,10.0648937225342
391,51.7724,4.56864213943481
392,51.7768,16.0073528289795
393,51.7822,31.9915428161621
394,51.7871,26.7267189025879
395,51.7913,8.39804363250732
396,51.7949,2.59701085090637
397,51.7995,5.26907873153687
398,51.8038,15.3148899078369
399,51.8093,8.98108100891113
400,51.8120,10.5638837814331
401,51.8165,18.3642158508301
402,51.8209,17.2880725860596
403,51.8297,4.91407823562622
404,51.8338,19.330509185791
405,51.8377,9.99823760986328
406,51.8433,10.3387689590454
407,51.8463,20.2664337158203
408,51.8488,25.2805690765381
409,51.8518,17.1715240478516
410,51.8552,10.6226396560669
411,51.8596,26.9805717468262
412,51.8661,5.74144124984741
413,51.8705,16.1659660339355
414,51.8752,22.1943550109863
415,51.8788,17.1672306060791
416,51.8839,30.7798805236816
417,51.8877,9.89977073669434
418,51.8910,16.1289520263672
419,51.8950,31.2780113220215
420,51.8996,11.4805698394775
421,51.9035,14.1648712158203
422,51.9083,11.0701694488525
423,51.9134,14.995964050293
424,51.9162,5.0789155960083
425,51.9193,20.843843460083
426,51.9282,17.1055393218994
427,51.9326,5.46609258651733
428,51.9373,25.6817779541016
429,51.9454,14.1318864822388
430,51.9503,13.1712617874146
431,51.9543,13.8587093353271
432,51.9567,10.9430112838745
433,51.9606,15.9692840576172
434,51.9638,11.7609195709229
435,51.9671,34.3669967651367
436,51.9749,25.9145317077637
437,51.9814,23.5309600830078
438,51.9874,11.7888078689575
439,51.9906,40.8625183105469
440,51.9972,8.82817363739014
441,52.0014,11.0934724807739
442,52.0056,9.17844390869141
443,52.0145,21.2839870452881
444,52.0227,5.97863912582397
445,52.0264,16.2751522064209
446,52.0314,35.3611068725586
447,52.0385,20.0215072631836
448,52.0478,4.71116924285889
449,52.0509,5.21610307693481
450,52.0542,18.7881507873535
451,52.0585,15.8088207244873
452,52.0625,15.4253330230713
453,52.0650,19.7305011749268
454,52.0690,16.5338325500488
455,52.0741,12.1238374710083
456,52.0772,4.59504461288452
457,52.0867,11.0706357955933
458,52.0941,15.1898517608643
459,52.0966,10.1678810119629
460,52.1003,29.9265651702881
461,52.1056,9.52490997314453
462,52.1111,10.4859485626221
463,52.1149,20.2919101715088
464,52.1190,4.76207637786865
465,52.1233,35.9928970336914
466,52.1268,23.3261775970459
467,52.1317,18.5953121185303
468,52.1359,26.2737636566162
469,52.1394,14.6775684356689
470,52.1439,4.90620899200439
471,52.1476,25.999828338623
472,52.1524,27.1508369445801
473,52.1574,28.302417755127
474,52.1648,15.0316696166992
475,52.1712,33.8777275085449
476,52.1785,14.0142087936401
477,52.1823,12.8902797698975
478,52.1857,19.4499568939209
479,52.1889,13.8491687774658
480,52.1946,10.0686130523682
481,52.1980,14.9573945999146
482,52.2025,21.2158603668213
483,52.2076,4.3553671836853
484,52.2128,14.4619579315186
485,52.2175,43.7826309204102
486,52.2233,10.140700340271
487,52.2289,37.8775444030762
488,52.2379,20.5975666046143
489,52.2430,30.2172050476074
490,52.2506,3.99401926994324
491,52.2561,2.86366271972656
492,52.2605,5.08421993255615
493,52.2633,29.9665431976318
494,52.2668,5.18848896026611
495,52.2718,20.8123512268066
496,52.2769,39.1088638305664
497,52.2817,19.77272605896
498,52.2881,5.31167459487915
499,52.2960,17.2285423278809
500,52.2993,10.5758991241455
501,52.3045,32.8469352722168
502,52.3080,5.70484733581543
503,52.3109,20.4337196350098
504,52.3143,9.65918445587158
505,52.3193,10.1158390045166
506,52.3242,14.1523180007935
507,52.3294,16.3897895812988
508,52.3371,22.3863830566406
509,52.3429,5.49288892745972
510,52.3481,22.7045288085938
511,52.3516,16.3959255218506
512,52.3556,23.0370292663574
513,52.3599,19.7134304046631
514,52.3632,9.73243522644043
515,52.3666,4.7264084815979
516,52.3725,19.6746864318848
517,52.3778,15.7887630462646
518,52.3831,22.4096717834473
519,52.3868,15.0010786056519
520,52.3911,32.6502456665039
521,52.3957,4.85366535186768
522,52.4020,14.5770435333252
523,52.4048,6.031081199646
524,52.4093,5.51539325714111
525,52.4140,5.16502857208252
526,52.4175,5.41900396347046
527,52.4209,11.7570629119873
528,52.4246,14.5338010787964
529,52.4267,4.71009063720703
530,52.4325,16.5811882019043
531,52.4424,18.8749580383301
532,52.4497,6.93794918060303
533,52.4540,26.4892482757568
534,52.4583,40.2043228149414
535,52.4634,23.5113334655762
536,52.4680,14.6918029785156
537,52.4713,14.6776170730591
538,52.4753,24.7872276306152
539,52.4800,14.0090179443359
540,52.4844,9.50974750518799
541,52.4872,19.3885955810547
542,52.4909,10.4088087081909
543,52.4940,28.0216312408447
544,52.4973,4.95000886917114
545,52.5021,11.311637878418
546,52.5055,12.4973850250244
547,52.5097,15.0902156829834
548,52.5142,14.8733997344971
549,52.5213,30.4378967285156
550,52.5239,21.9528770446777
551,52.5308,4.60011196136475
552,52.5379,10.453875541687
553,52.5434,14.7256717681885
554,52.5476,9.51044082641602
555,52.5508,9.76609420776367
556,52.5545,9.76914501190186
557,52.5591,31.8211727142334
558,52.5647,8.70046520233154
559,52.5705,33.622730255127
560,52.5790,25.3703193664551
561,52.5838,17.3002510070801
562,52.5888,10.0908603668213
563,52.5927,10.5165538787842
564,52.6025,39.2773094177246
565,52.6072,19.728443145752
566,52.6147,49.2395668029785
567,52.6188,15.0320796966553
568,52.6233,12.7634897232056
569,52.6275,25.1901397705078
570,52.6321,18.7800312042236
571,52.6371,4.7214937210083
572,52.6412,52.8578987121582
573,52.6444,4.75928163528442
574,52.6502,15.3786134719849
575,52.6536,4.48158502578735
576,52.6576,18.4671077728271
577,52.6629,9.40837478637695
578,52.6695,22.0396785736084
579,52.6787,3.82731866836548
580,52.6820,6.5329122543335
581,52.6857,18.8069267272949
582,52.6907,16.803466796875
583,52.6957,9.73377704620361
584,52.6982,10.1113338470459
585,52.7015,21.4344367980957
586,52.7058,20.6288185119629
587,52.7108,9.58790397644043
588,52.7180,8.99066257476807
589,52.7214,21.7129611968994
590,52.7259,14.5431318283081
591,52.7299,10.1398773193359
592,52.7381,4.8980770111084
593,52.7422,20.349925994873
594,52.7458,20.8338813781738
595,52.7493,15.4232969284058
596,52.7536,19.8847904205322
597,52.7587,10.031623840332
598,52.7620,26.557559967041
599,52.7686,9.87001800537109
600,52.7721,14.916163444519
601,52.7755,15.2001295089722
602,52.7791,14.8374423980713
603,52.7841,16.608570098877
604,52.7881,9.56747722625732
605,52.7923,15.5661058425903
606,52.7986,26.7248268127441
607,52.8027,48.6553421020508
608,52.8092,16.5958595275879
609,52.8201,18.4486331939697
610,52.8237,5.9441123008728
611,52.8314,30.1587867736816
612,52.8385,26.2442569732666
613,52.8425,11.4984512329102
614,52.8452,16.1205940246582
615,52.8506,10.2670650482178
616,52.8534,38.2941360473633
617,52.8598,13.7821245193481
618,52.8675,23.6004295349121
619,52.8708,25.0337104797363
620,52.8752,4.87599563598633
621,52.8787,23.6253395080566
622,52.8818,30.8436088562012
623,52.8853,12.0847854614258
624,52.8886,14.8015642166138
625,52.8936,4.72510433197021
626,52.8978,15.6687955856323
627,52.9013,19.7280521392822
628,52.9054,24.7770729064941
629,52.9098,5.08618450164795
630,52.9147,12.035249710083
631,52.9199,10.7011547088623
632,52.9264,16.6433811187744
633,52.9356,52.5114059448242
634,52.9409,17.9024467468262
635,52.9468,10.4270000457764
636,52.9513,36.571647644043
637,52.9617,32.4033432006836
638,52.9653,11.6469755172729
639,52.9719,30.0347557067871
640,52.9774,22.7782783508301
641,52.9801,8.77679252624512
642,52.9868,20.6743812561035
643,52.9927,4.90240955352783
644,52.9959,9.96349143981934
645,53.0008,24.5296497344971
646,53.0054,16.4373359680176
647,53.0112,9.91543865203857
648,53.0160,24.9531002044678
649,53.0215,10.854398727417
650,53.0255,22.5000514984131
651,53.0305,26.0331268310547
652,53.0325,15.6267747879028
653,53.0399,51.9256057739258
654,53.0466,25.1353092193604
655,53.0496,21.3058929443359
656,53.0536,10.4662456512451
657,53.0567,23.5781555175781
658,53.0608,26.4979801177979
659,53.0658,14.3003263473511
660,53.0706,8.60537528991699
661,53.0760,5.01460027694702
662,53.0824,40.3991317749023
663,53.0887,25.3900699615479
664,53.0975,14.1499967575073
665,53.1012,16.5603466033936
666,53.1056,9.60895538330078
667,53.1096,22.3812141418457
668,53.1129,15.9115657806396
